method,time_S_BA,time_nDTW,freq_MSC_mean,freq_Delta_f_peak_Hz,nl_XSampEn,nl_PLV,BA_bias,BA_sd,BA_loa_width,S_time,S_freq,S_nl,TDSI,mm_z_mean,mm_z_std,ecg_z_mean,ecg_z_std,f0_Hz,file_index,mmwave_file,ecg_file
原始波形,0.6207030208832327,0.2660000038219871,0.16277847240183108,0.17359375,1.5502506823778128,0.10897040510771526,-2.7963638401353266e-17,1.421274942601805,5.571397774999076,0.6935710727274658,0.16950668749790135,0.2505443599751226,0.37120737340016324,2.6632036572717397e-18,1.0,-7.989610971815219e-18,1.0,1.38875,1,001.csv,001.csv
帶通,0.6165781367283211,0.23720043334831423,0.15952889071787943,0.17359375,1.2426637161423213,0.1030776193114181,-1.9308226515220113e-17,1.4560463487055362,5.707701686925701,0.7027056502137526,0.1678818966559255,0.2744879733671844,0.3816918400789542,2.3303032001127723e-17,0.9999999999999998,-7.989610971815219e-18,1.0,1.38875,1,001.csv,001.csv
小波去噪,0.6191409325808631,0.2696492477897415,0.2764198167856349,0.04339843750000005,1.408767216971949,0.20519822959108722,-1.731082377226631e-17,1.4343009986472575,5.62245991469725,0.6913941154631497,0.46217109798953415,0.3101741749661764,0.48791312947295346,-1.5979221943630438e-17,0.9999999999999999,-7.989610971815219e-18,1.0,1.38875,1,001.csv,001.csv
NLMS,0.6229150952061847,0.2590390657392873,0.26333158541067375,0.0,1.3261232820988689,0.07953200983586053,-2.6632036572717397e-18,1.4031142642812404,5.500207915982462,0.6973539835009192,0.6316657927053368,0.25471591915843794,0.5279118984548979,-1.997402742953805e-17,1.0000000000000002,-7.989610971815219e-18,1.0,1.38875,1,001.csv,001.csv
帶通+小波,0.6167161145606093,0.23681349734363769,0.20082065073561284,0.17359375,1.261179149090584,0.11147066751001064,3.062684205862501e-17,1.454863483310322,5.703064854576462,0.7029272826359856,0.18852777666479223,0.2768589011649973,0.38943798682192504,5.3264073145434795e-18,1.0,-7.989610971815219e-18,1.0,1.38875,1,001.csv,001.csv
帶通+小波+NLMS,0.6326193465193234,0.26333119570564345,0.5910699370761694,0.17359375,1.236610275215667,0.23848036885276575,-2.7297837487035332e-17,1.3271251299606335,5.202330509445683,0.700553340986285,0.3836524198350705,0.3427927655535473,0.475666175458301,-5.992208228861415e-18,1.0,-7.989610971815219e-18,1.0,1.38875,1,001.csv,001.csv
原始波形,0.6202097661403326,0.2591952414207322,0.24826364423428618,0.30378906249999993,1.49309892034995,0.08182876057598014,4.394286034498371e-17,1.4253698305339872,5.58744973569323,0.6959410560350744,0.14809977097158006,0.24146799487533918,0.3618362739606645,1.464762011499457e-17,0.9999999999999999,-3.728485120180436e-17,1.0,1.475546875,2,002.csv,002.csv
帶通,0.6216192913589581,0.23964357389077034,0.24930635123355765,0.30378906249999993,1.3604355606471195,0.08691698392168304,1.5979221943630438e-17,1.4137124954290143,5.541752982081736,0.7042637885529066,0.1486211244712158,0.2552838043463759,0.36938957245683274,7.989610971815219e-18,1.0,-3.728485120180436e-17,1.0,1.475546875,2,002.csv,002.csv
小波去噪,0.6181899489183563,0.2688787600177136,0.28650410438052515,0.21699218749999982,1.3002653024803712,0.24581727407144074,-9.987013714769024e-19,1.4423150315975073,5.653874923862229,0.6912129274488416,0.20034532088306725,0.3402748684268782,0.41061103891959566,-2.1305629258173918e-17,0.9999999999999998,-3.728485120180436e-17,1.0,1.475546875,2,002.csv,002.csv
NLMS,0.6225714705236534,0.27355505973272887,0.23638173261126644,0.21699218749999982,1.3893672863603521,0.17518055002723795,1.5979221943630438e-17,1.405913805722033,5.511182118430369,0.6916209617073255,0.1752841349984379,0.2968506942276253,0.38791859697779624,1.0319914171927992e-17,0.9999999999999999,-3.728485120180436e-17,1.0,1.475546875,2,002.csv,002.csv
帶通+小波,0.6226046621050241,0.24547616812813616,0.2593891443086007,0.30378906250000015,1.3380491857916765,0.08751428091590399,1.7976624686584242e-17,1.4056430486853049,5.510120750846395,0.7024682950558168,0.15366252100873729,0.2576106397934235,0.37124715195265917,-2.6632036572717397e-18,1.0,-3.728485120180436e-17,1.0,1.475546875,2,002.csv,002.csv
帶通+小波+NLMS,0.6236724892097784,0.26815173584863644,0.5393229052957343,0.1735937500000002,1.3173310540019636,0.0889554744592938,-9.32121280045109e-18,1.3969712430323606,5.4761272726868535,0.6942321075932161,0.3577789039448528,0.26024319686758446,0.43741806946855116,6.325108686020382e-18,1.0,-3.728485120180436e-17,1.0,1.475546875,2,002.csv,002.csv
原始波形,0.6239775795190416,0.25161697317694764,0.2876034337502173,0.21699218750000004,1.8099579601104885,0.3054067019922366,2.8629439315671206e-17,1.3945073594956228,5.466468849222841,0.7007600400963182,0.2008949855679132,0.3306419561631293,0.4107656606091202,3.9948054859076094e-18,1.0,-1.0652814629086959e-17,1.0,1.38875,3,003.csv,003.csv
帶通,0.6233457655961633,0.25484251903018873,0.28841003744919896,0.21699218750000004,1.6274340543268433,0.31967141149930267,7.989610971815219e-18,1.3996165844011708,5.486497010852589,0.699192153884217,0.20129828741740402,0.35013543912511047,0.4168752934755771,0.0,1.0,-1.0652814629086959e-17,1.0,1.38875,3,003.csv,003.csv
小波去噪,0.6234161078238751,0.2518312296818815,0.2510033431849555,0.0,1.872879327941513,0.22841560176589712,2.6465586344137913e-17,1.399046462050889,5.484262131239484,0.700396016402219,0.6255016715924777,0.288249221675329,0.5380489698900085,-2.6632036572717397e-18,1.0,-1.0652814629086959e-17,1.0,1.38875,3,003.csv,003.csv
NLMS,0.6326028886559979,0.2644583302397646,0.2959022735509135,0.13019531249999994,1.5267974072954495,0.3812420455163013,2.396883291544566e-17,1.3272492361716812,5.202817005792991,0.7001122617333084,0.2839511487007723,0.3884999657063998,0.45752112538016015,0.0,1.0,-1.0652814629086959e-17,1.0,1.38875,3,003.csv,003.csv
帶通+小波,0.6234514993805874,0.261956093011196,0.28114141727243436,0.21699218750000004,1.6175351226667194,0.22008300555760515,-3.6619050287486425e-18,1.3987597370539926,5.483138169251651,0.6964981553709086,0.19766397732902174,0.3010609071299483,0.3984076799432929,-1.5979221943630438e-17,1.0,-1.0652814629086959e-17,1.0,1.38875,3,003.csv,003.csv
帶通+小波+NLMS,0.6372489977575733,0.2940721805329893,0.7036441289123352,0.17359375,1.6544647944686715,0.3018021306179178,2.396883291544566e-17,1.2928113203719764,5.0678203758581475,0.6912358483439474,0.4399395157531534,0.33926295319004574,0.49014610576238216,1.0652814629086959e-17,1.0,-1.0652814629086959e-17,1.0,1.38875,3,003.csv,003.csv
原始波形,0.6155767060641243,0.2654522951977219,0.22359695460925277,0.30378906250000015,1.5595732609129267,0.12325808972497741,-1.9974027429538047e-18,1.4646736671243046,5.741520775127274,0.691217865467668,0.1357664261590633,0.25697410789915454,0.36131946650862856,-1.3316018286358699e-18,1.0,-1.3316018286358699e-17,1.0,1.5189453124999999,4,004.csv,004.csv
帶通,0.6212381652257559,0.26645653582830736,0.22009150988587978,0.30378906250000015,1.3558442808873314,0.12522369913436546,-5.3264073145434795e-18,1.4168511797539307,5.554056624635408,0.693663732832612,0.13401370379737682,0.27484998604183736,0.36750914089060877,7.656710514656252e-18,1.0,-1.3316018286358699e-17,1.0,1.5189453124999999,4,004.csv,004.csv
小波去噪,0.6225685178867073,0.30236081449609364,0.1841884544923485,0.30378906250000015,1.3991723162253769,0.17265928180675516,-1.5313421029312504e-17,1.4059378951165487,5.511276548856871,0.6808199335026326,0.11606217610061118,0.2947348465730775,0.36387231872544046,-1.3316018286358699e-17,0.9999999999999998,-1.3316018286358699e-17,1.0,1.5189453124999999,4,004.csv,004.csv
NLMS,0.6268408055122282,0.2633584670770928,0.25995662818568005,0.3471875,1.4534626524056242,0.2163330315926276,3.9948054859076094e-18,1.3716752981554632,5.376967168769416,0.6976535917738328,0.14550768453899335,0.3119601213397889,0.38504046588420504,3.3290045715896748e-18,1.0,-1.3316018286358699e-17,1.0,1.5189453124999999,4,004.csv,004.csv
帶通+小波,0.6211677381394682,0.27549121691273953,0.25652019704809,0.30378906250000015,1.3803959521653337,0.1191458318197797,-1.1318615543404894e-17,1.4174322471891003,5.556334408981273,0.6901834191580895,0.15222804737848192,0.2696220044008922,0.3706778236458212,-2.263723108680979e-17,1.0,-1.3316018286358699e-17,1.0,1.5189453124999999,4,004.csv,004.csv
帶通+小波+NLMS,0.6208334142740708,0.2699189730224841,0.5550528547322592,0.17359375,1.401904434190969,0.20523658302205675,-1.3316018286358699e-17,1.420195242941417,5.567165352330355,0.6921373827250251,0.36564387866311543,0.3107864404525638,0.4561892339469014,-1.9974027429538047e-18,0.9999999999999998,-1.3316018286358699e-17,1.0,1.5189453124999999,4,004.csv,004.csv
原始波形,0.62401666197485,0.2825176571072907,0.30660948966694546,0.13019531250000016,1.623698403653257,0.12605124482200986,-1.1318615543404894e-17,1.3941921710791787,5.4652333106303805,0.6889499962088997,0.28930475675878803,0.25359630664201116,0.41061701986989957,1.872565071519192e-18,1.0,4.2611258516347836e-17,0.9999999999999999,1.4321484375,5,005.csv,005.csv
帶通,0.6244498885937473,0.2983683599673693,0.2876111863892876,0.13019531250000016,1.6107274032639718,0.13327086433639176,-1.2317316914881797e-17,1.3907049647978442,5.451563462007549,0.6832389222995692,0.2798056051199591,0.25815293773959036,0.40706582171970623,6.9076844860485755e-18,0.9999999999999999,4.2611258516347836e-17,0.9999999999999999,1.4321484375,5,005.csv,005.csv
小波去噪,0.6240231275838082,0.28318221868965354,0.30743058065171824,0.13019531250000016,1.6162824045779922,0.12528430243221877,-1.731082377226631e-17,1.3941400374358532,5.465028946748545,0.6887028112820989,0.2897153022511744,0.2537530187299129,0.41072371075439534,-2.488430917263282e-17,1.0,4.2611258516347836e-17,0.9999999999999999,1.4321484375,5,005.csv,005.csv
NLMS,0.62955795605767,0.2755231085652485,0.2544852587643242,0.30378906249999993,1.5467048422956553,0.23492201221747416,-1.864242560090218e-17,1.350479780272605,5.293880738668611,0.6943664222532854,0.15121057823659909,0.31379314153959015,0.3864567140098249,1.3316018286358699e-18,0.9999999999999999,4.2611258516347836e-17,0.9999999999999999,1.4321484375,5,005.csv,005.csv
帶通+小波,0.6244425761339378,0.29856673905225495,0.3114524633466913,0.13019531250000016,1.6011719593213936,0.13436630186500648,-1.3316018286358699e-17,1.3907637247913984,5.451793801182282,0.6831616719562363,0.29172624359866095,0.2594041989136765,0.4114307048228579,4.4941561716460606e-18,0.9999999999999998,4.2611258516347836e-17,0.9999999999999999,1.4321484375,5,005.csv,005.csv
帶通+小波+NLMS,0.6366258318666633,0.280902108463504,0.571114002854026,0.30378906249999993,1.617602203191081,0.2342467973546133,-8.655411886133154e-18,1.2973620632584746,5.08565928797322,0.6958640409242363,0.30952495028145,0.30813790783017075,0.43784229967861904,-5.3264073145434795e-18,0.9999999999999999,4.2611258516347836e-17,0.9999999999999999,1.4321484375,5,005.csv,005.csv
原始波形,0.6166210427654744,0.2806283789949119,0.27071518460723804,0.08679687499999988,1.655579068431955,0.08576290404198707,7.989610971815219e-18,1.4556783711017505,5.7062592147188615,0.6859650073882844,0.34525929703345914,0.23116430375142083,0.4207962027243881,-2.929524022998914e-17,1.0,2.5300434744081527e-17,1.0,1.4321484375,6,006.csv,006.csv
帶通,0.6176036200177899,0.26421674135457396,0.27564303098654735,0.08679687499999988,1.4993860222132451,0.10102769893673849,-1.198441645772283e-17,1.4472882809672352,5.673370061391561,0.6927053630432031,0.34772322022311386,0.2505629797572721,0.430330521007863,7.323810057497285e-18,1.0,2.5300434744081527e-17,1.0,1.4321484375,6,006.csv,006.csv
小波去噪,0.6173129090503982,0.2896632322491214,0.2654749099432815,0.39058593750000004,1.9605803388031064,0.05331703381430824,-2.6632036572717397e-18,1.4497632972374461,5.6830721251707885,0.6829142550518362,0.1427992816184886,0.19554432400608876,0.34041928689213785,-1.5979221943630438e-17,1.0,2.5300434744081527e-17,1.0,1.4321484375,6,006.csv,006.csv
NLMS,0.61512900245096,0.26519244803634223,0.24810429286221775,0.0867968750000001,1.6265694999185503,0.34598175799611613,7.989610971815219e-18,1.468554838318931,5.756734966210209,0.6910936596772879,0.33395385116094856,0.36335325091150067,0.46280025391657903,-1.864242560090218e-17,1.0,2.5300434744081527e-17,1.0,1.4321484375,6,006.csv,006.csv
帶通+小波,0.6186972335691191,0.2716563522713514,0.3078517653631506,0.08679687499999988,1.5554292374593242,0.0021388694361090853,1.198441645772283e-17,1.4380321031512935,5.63708584435307,0.6904066745678064,0.36382758741141547,0.19673127996527934,0.4169885139815004,-1.198441645772283e-17,0.9999999999999999,2.5300434744081527e-17,1.0,1.4321484375,6,006.csv,006.csv
帶通+小波+NLMS,0.6225361194111269,0.2868522027312477,0.6407971566605235,0.0867968750000001,1.6076972679563162,0.26853606886838516,5.3264073145434795e-18,1.4062022595620876,5.5123128574833835,0.6865793900146944,0.5303002830601015,0.32600808269211634,0.5142959185889707,-1.6645022857948375e-17,1.0,2.5300434744081527e-17,1.0,1.4321484375,6,006.csv,006.csv
原始波形,0.6195382359692567,0.2635449095524389,0.18773923098692388,0.0867968750000001,1.6468447994068656,0.17652550005865478,2.5300434744081527e-17,1.4309718119589856,5.609409502879223,0.6939306762931874,0.30377132022330167,0.27716691249176023,0.4249563030027497,1.0652814629086959e-17,1.0,-1.198441645772283e-17,1.0,1.4321484375,7,007.csv,007.csv
帶通,0.622438744803579,0.25693216440426614,0.2002806912561766,0.0867968750000001,1.5431304186080945,0.18404167453535886,4.0613855773394034e-17,1.4069972359200773,5.515429164806703,0.6979297111209812,0.310042050357928,0.28862892167479365,0.43220022771790095,6.325108686020382e-18,1.0,-1.198441645772283e-17,1.0,1.4321484375,7,007.csv,007.csv
小波去噪,0.6224252251299781,0.26484533102443536,0.22386938482941585,0.0,1.980798095777952,0.12171798333348785,4.4941561716460606e-18,1.4071076619138911,5.515862034702453,0.6948749236206879,0.6119346924147079,0.22859930279623897,0.5118029729438783,-2.1305629258173918e-17,1.0,-1.198441645772283e-17,1.0,1.4321484375,7,007.csv,007.csv
NLMS,0.6227439805708931,0.25089718785256176,0.20989570854628475,0.0867968750000001,1.5684618296209483,0.19186241069838522,1.198441645772283e-17,1.404507371068967,5.505668894590351,0.7004231731963729,0.31484955900298206,0.29060024587520644,0.43529099269152044,7.323810057497285e-18,0.9999999999999999,-1.198441645772283e-17,1.0,1.4321484375,7,007.csv,007.csv
帶通+小波,0.6228430371386381,0.2680367136329305,0.24521847298314975,0.0867968750000001,1.5903039578475562,0.14227937883390449,3.2624244801578815e-17,1.4037006788094115,5.502506660932893,0.6938613681067504,0.33251094122141456,0.2641672290943733,0.4301798461408461,-2.6632036572717397e-18,0.9999999999999999,-1.198441645772283e-17,1.0,1.4321484375,7,007.csv,007.csv
帶通+小波+NLMS,0.6240665475606642,0.2560052316839722,0.5187937061698507,0.0,1.5541976772796369,0.25040452764102045,9.987013714769025e-18,1.3937900028987529,5.463656811363111,0.6991022331486882,0.7593968530849253,0.3209584515453882,0.5931525125930006,-2.3303032001127723e-17,1.0,-1.198441645772283e-17,1.0,1.4321484375,7,007.csv,007.csv
原始波形,0.6189106441649947,0.26674961024415694,0.31221201462824477,0.4773828124999999,1.5848768701353464,0.06110370801360049,5.3264073145434795e-18,1.436235776739083,5.6300442448172054,0.69238772816387,0.16032999644586138,0.22398466536304082,0.3589007966575907,-2.263723108680979e-17,1.0,-1.0652814629086959e-17,1.0,1.5189453124999999,8,008.csv,008.csv
帶通,0.6181617973863112,0.25485552406231593,0.30915287472671993,0.17359375,1.5997392298171185,0.07255226901762442,1.864242560090218e-17,1.4425532488530888,5.654808735504108,0.6965951301114912,0.24269388866034577,0.2286031164866058,0.3892973784194809,-1.0652814629086959e-17,1.0,-1.0652814629086959e-17,1.0,1.5189453124999999,8,008.csv,008.csv
小波去噪,0.6103494243156309,0.2787769605345878,0.42347901019227796,0.4773828124999999,1.6876852874889623,0.21323372820599149,6.6580091431793495e-18,1.5109561826281077,5.922948235902182,0.6835290423026493,0.21596349422787797,0.29265054979062977,0.397381028773719,1.198441645772283e-17,1.0,-1.0652814629086959e-17,1.0,1.5189453124999999,8,008.csv,008.csv
NLMS,0.6272711663454005,0.26724523208476686,0.38432281915240085,0.17359375,1.6523853062666685,0.07234385570068051,-3.9948054859076094e-18,1.368288120121417,5.363689430875954,0.6963782466143238,0.2802788608731862,0.22468149273847057,0.40044620007532683,2.6632036572717397e-18,1.0,-1.0652814629086959e-17,1.0,1.5189453124999999,8,008.csv,008.csv
帶通+小波,0.6179564873574788,0.2626400912376897,0.2921862664838528,0.17359375,1.5941943982605205,0.0982008187996008,6.6580091431793495e-18,1.4442922931697797,5.661625789225536,0.6934875557043192,0.23421058453891222,0.24183847110221712,0.38984553711514947,0.0,1.0000000000000002,-1.0652814629086959e-17,1.0,1.5189453124999999,8,008.csv,008.csv
帶通+小波+NLMS,0.6346195272263984,0.27345119553502384,0.6889562329589003,0.17359375,1.6535138663408055,0.23117576692816813,3.062684205862501e-17,1.3121556157578527,5.143650013770783,0.6976844953234075,0.43259556777643593,0.30401727376891025,0.47809911228958457,-1.0652814629086959e-17,1.0,-1.0652814629086959e-17,1.0,1.5189453124999999,8,008.csv,008.csv
原始波形,0.6265854965298072,0.2725285153323057,0.2675619980690075,0.13019531250000016,1.4929100379664486,0.15556779597325116,-1.7976624686584242e-17,1.373690156650702,5.3848654140707515,0.6940186061733604,0.26978101095981905,0.27835270808611356,0.41405077507309773,1.5979221943630438e-17,1.0,1.3316018286358699e-18,1.0000000000000002,1.4321484375,9,009.csv,009.csv
帶通,0.6299943518652463,0.26579788517981867,0.26530595882389624,0.13019531250000016,1.4317875677743517,0.15624133700687687,7.989610971815219e-18,1.347117096100879,5.280699016715445,0.6982942018642138,0.2686529913372634,0.2837307335543161,0.41689264225193107,-7.989610971815219e-18,1.0,1.3316018286358699e-18,1.0000000000000002,1.4321484375,9,009.csv,009.csv
小波去噪,0.6201909454929961,0.30301670947391274,0.27378510856128707,0.0867968750000001,1.6312127621275043,0.04893699290954721,0.0,1.4255264078356684,5.5880635187158205,0.6793888501821281,0.3467942590104832,0.21449493870861777,0.4135593493004097,5.3264073145434795e-18,1.0,1.3316018286358699e-18,1.0000000000000002,1.4321484375,9,009.csv,009.csv
NLMS,0.6177753445108989,0.2759323096639355,0.2908087505964942,0.04339843750000005,1.4972538000692757,0.1471293187608528,9.32121280045109e-18,1.445829148678838,5.667650262821045,0.6883198206564531,0.46936556489496384,0.27378459697192375,0.4771566608411135,1.3316018286358699e-18,1.0,1.3316018286358699e-18,1.0000000000000002,1.4321484375,9,009.csv,009.csv
帶通+小波,0.6279037328742898,0.27214512667172713,0.28434264200195636,0.13019531250000016,1.453686434886681,0.1625845753874305,-2.396883291544566e-17,1.3633302043814355,5.344254401175227,0.6948237183067392,0.2781713329262935,0.2850673067389225,0.4193541193239851,-3.9948054859076094e-18,1.0,1.3316018286358699e-18,1.0000000000000002,1.4321484375,9,009.csv,009.csv
帶通+小波+NLMS,0.6227842813867259,0.2598593094274831,0.5454377622502191,0.08679687499999988,1.472292783694615,0.1007207143488969,9.32121280045109e-18,1.4041790926388307,5.504382043144216,0.6969721772553659,0.4826205858549497,0.2526017758679075,0.47739817965940773,4.660606400225545e-18,0.9999999999999999,1.3316018286358699e-18,1.0000000000000002,1.4321484375,9,009.csv,009.csv
原始波形,0.620990804493762,0.28783189951884974,0.34521608574801277,0.21699218750000004,1.4588115313956584,0.19627695186042446,3.495454800169158e-18,1.4188935516326089,5.562062722399827,0.6854392213055481,0.22970131156681095,0.3014887504899677,0.4055430944541089,-2.6632036572717397e-18,1.0,-2.6632036572717397e-18,1.0,1.56234375,10,010.csv,010.csv
帶通,0.6237714484858818,0.2480654288078808,0.3295516849917694,0.21699218750000004,1.1972916565759406,0.19337082539521108,2.3303032001127724e-18,1.396171390893723,5.4729918523033945,0.702040167706703,0.22186911118868924,0.3242382723753938,0.4160491837569287,-1.3316018286358699e-17,1.0,-2.6632036572717397e-18,1.0,1.56234375,10,010.csv,010.csv
小波去噪,0.6169737343849617,0.24388946141518603,0.3232929632352348,0.30378906249999993,1.0672638028855232,0.2864847264458309,-1.1651516000563861e-17,1.4526586812628592,5.694422030550408,0.7002739895244712,0.1856144304720544,0.3851079632020237,0.423665461066183,-2.6632036572717398e-17,1.0,-2.6632036572717397e-18,1.0,1.56234375,10,010.csv,010.csv
NLMS,0.6244892122316408,0.2825803062763572,0.345975806295688,0.04339843750000005,1.1445243707516786,0.21580985585406748,-1.5979221943630438e-17,1.3903890350134898,5.450325017252879,0.6891626569948996,0.4969490927445607,0.3410568598049376,0.509056203181466,8.655411886133154e-18,1.0,-2.6632036572717397e-18,1.0,1.56234375,10,010.csv,010.csv
帶通+小波,0.6246650575084272,0.2492016937088909,0.28222124653886266,0.21699218750000004,1.139738864801019,0.17663393065571018,1.2317316914881797e-17,1.3889774974454874,5.4447917899863105,0.7020439051863232,0.19820389196223587,0.3219903393199177,0.407412712156159,-1.0652814629086959e-17,0.9999999999999999,-2.6632036572717397e-18,1.0,1.56234375,10,010.csv,010.csv
帶通+小波+NLMS,0.627397047168983,0.2558466827383453,0.6932700274960591,0.04339843750000005,1.0513175883416503,0.06911193259482329,-7.989610971815219e-18,1.3672995331902305,5.359814170105703,0.7008288571935224,0.6705962033447463,0.2783017435684074,0.5499089347022253,1.997402742953805e-17,1.0,-2.6632036572717397e-18,1.0,1.56234375,10,010.csv,010.csv
原始波形,0.6266630399856687,0.27141989623455665,0.20410782763675478,0.13019531250000016,1.4123306951303378,0.1961115464489803,-1.7643724229425275e-17,1.373077766471854,5.382464844569668,0.6944796919078086,0.2380539257436927,0.3053242049570578,0.412619274202853,1.5979221943630438e-17,1.0,-2.6632036572717397e-18,1.0,1.475546875,11,011.csv,011.csv
帶通,0.628764288098742,0.26545400005196057,0.20526319931718523,0.13019531250000016,1.4136556136935152,0.19520538250002556,-2.396883291544566e-17,1.3566245895114648,5.317968390884942,0.6978110027941045,0.23863161158390792,0.3047573479306612,0.4137333207695579,-1.3316018286358699e-17,1.0,-2.6632036572717397e-18,1.0,1.475546875,11,011.csv,011.csv
小波去噪,0.6242003918113108,0.23577045819640208,0.23491596130061188,0.13019531249999994,1.4855615839620568,0.16085682238948462,5.659307771702447e-18,1.3927117742473476,5.459430155049603,0.7070811871162987,0.2534579925756215,0.28159019420032994,0.4140431246307501,-1.9974027429538047e-18,1.0,-2.6632036572717397e-18,1.0,1.475546875,11,011.csv,011.csv
NLMS,0.6152357718738343,0.2527390822227034,0.2532353360122812,0.13019531250000016,1.4009024835941566,0.07623022500130529,-2.6632036572717398e-17,1.4676278786235322,5.753101284204246,0.6959531372019812,0.2626176799314559,0.2463701346919325,0.4016469839417898,-6.325108686020382e-18,1.0,-2.6632036572717397e-18,1.0,1.475546875,11,011.csv,011.csv
帶通+小波,0.628457153284354,0.2619238288983046,0.2526801098080704,0.13019531250000016,1.4258202779990263,0.12243487041457246,-2.6632036572717398e-17,1.3590126871653967,5.327329733688355,0.6990133968633974,0.2623400668293505,0.26733328168393966,0.4095622484588959,-1.3648918743517666e-17,1.0000000000000002,-2.6632036572717397e-18,1.0,1.475546875,11,011.csv,011.csv
帶通+小波+NLMS,0.6216756454141108,0.24437644959235483,0.3152049032589652,0.08679687499999988,1.4400104307688664,0.2692235978042983,-1.6645022857948375e-17,1.413249238306545,5.539937014161656,0.7024341957925868,0.36750415635932276,0.33952895568760033,0.46982243594650325,2.6632036572717397e-18,1.0,-2.6632036572717397e-18,1.0,1.475546875,11,011.csv,011.csv
原始波形,0.6199288376544672,0.27504357552372977,0.2315939306235117,0.04339843750000005,1.380431117416033,0.08491759655629044,-2.0806278572435466e-17,1.4277095510918905,5.59662144028021,0.6897339314237465,0.4397581549084726,0.25250478378969066,0.4606656233739699,-6.6580091431793495e-18,1.0,0.0,1.0,1.38875,12,012.csv,012.csv
帶通,0.6175981665882356,0.25495714865423447,0.23030452019708858,0.04339843750000005,1.3851236292788551,0.07970309286681168,-5.992208228861415e-18,1.447334653315286,5.673551840995921,0.696273935737793,0.439113449695261,0.2494842857439361,0.46162389039233004,3.3290045715896748e-18,1.0,0.0,1.0,1.38875,12,012.csv,012.csv
小波去噪,0.6207250565047352,0.2745252251775209,0.25503202947785053,0.3471875,1.444721931862565,0.15376395383568667,9.987013714769025e-18,1.4210923986176744,5.570682202581284,0.6903289455356119,0.1430453851850786,0.281404214593792,0.3715928484381608,-5.3264073145434795e-18,1.0,0.0,1.0,1.38875,12,012.csv,012.csv
NLMS,0.623133459436347,0.2673563735814609,0.21270605622035482,0.04339843750000005,1.4282746508844597,0.08785894608887512,2.6632036572717397e-18,1.4013392952080874,5.493250037215702,0.6942668569311474,0.43031421770689415,0.2498369884146133,0.45813935435088493,5.3264073145434795e-18,1.0,0.0,1.0,1.38875,12,012.csv,012.csv
帶通+小波,0.6170018743017764,0.2628097045583037,0.2482352746352846,0.04339843750000005,1.4062116679130656,0.09875825618831893,-3.029394160146604e-17,1.4524181440794466,5.6934791247914305,0.6929450368058481,0.448078826914359,0.25717464611425767,0.4660661699448216,6.658009143179349e-19,0.9999999999999999,0.0,1.0,1.38875,12,012.csv,012.csv
帶通+小波+NLMS,0.6232809385271232,0.27314452737665823,0.5285971493869924,0.17359375,1.4544926932172875,0.24262161220132797,-1.0652814629086959e-17,1.4001422944678366,5.488557794313919,0.6921318676803,0.35241602599048205,0.3250188885821044,0.4565222607509621,1.198441645772283e-17,1.0,0.0,1.0,1.38875,12,012.csv,012.csv
原始波形,0.6130785337276149,0.2540485732060911,0.2419043669734025,0.21699218749999982,1.392456071892811,0.1798741042754992,1.9308226515220113e-17,1.4865255323627333,5.827180086861914,0.6943663294256894,0.17804545217950593,0.2989273052396262,0.39044636228160723,-2.3303032001127723e-17,1.0,1.5979221943630438e-17,1.0000000000000002,1.4321484375,13,013.csv,013.csv
帶通,0.6144714939679257,0.2404043982452735,0.24444208863567812,0.21699218749999982,1.2831257363465953,0.18783120740787482,3.9948054859076094e-18,1.4742822674026415,5.779186488218355,0.7003906542104306,0.17931431301064374,0.31291361684012514,0.39753952802039977,-1.731082377226631e-17,1.0,1.5979221943630438e-17,1.0000000000000002,1.4321484375,13,013.csv,013.csv
小波去噪,0.6144675692514225,0.26202405853258204,0.23925876083236036,0.21699218749999982,1.7721151504608015,0.10370051981298994,1.6645022857948375e-17,1.474316553526192,5.779320889822673,0.691980039937831,0.17672264910898486,0.23221794770506507,0.3669735455839603,-2.6632036572717398e-17,0.9999999999999999,1.5979221943630438e-17,1.0000000000000002,1.4321484375,13,013.csv,013.csv
NLMS,0.625517306559068,0.27379951665802404,0.2819320793209109,0.21699218749999982,1.481351515156408,0.26391552142550484,5.992208228861415e-18,1.3821644484887363,5.418084638075846,0.6930009155083308,0.19805930835326013,0.33346085164764694,0.40817369183641256,1.198441645772283e-17,1.0,1.5979221943630438e-17,1.0000000000000002,1.4321484375,13,013.csv,013.csv
帶通+小波,0.6139429838393399,0.245439150887409,0.24759051639453,0.21699218749999982,1.3175329979103938,0.18103329054124423,7.989610971815219e-18,1.4789099169004811,5.797326874249886,0.6981519360756343,0.18088852689006968,0.30626330365728827,0.39510125554099745,5.3264073145434795e-18,1.0,1.5979221943630438e-17,1.0000000000000002,1.4321484375,13,013.csv,013.csv
帶通+小波+NLMS,0.626768503960159,0.267109596044492,0.5819839818880961,0.21699218749999982,1.4649652219202507,0.057438677699458485,-2.6632036572717397e-18,1.3722454787547353,5.379202276718562,0.6961788326418601,0.3480852596368527,0.2315619572987195,0.4252753498591441,-1.7976624686584242e-17,1.0,1.5979221943630438e-17,1.0000000000000002,1.4321484375,13,013.csv,013.csv
原始波形,0.6183858526000598,0.2653199316214554,0.1749046356070588,0.4339843750000001,1.1641895747132887,0.08818038386896461,2.6632036572717397e-18,1.4406588712867372,5.64738277544401,0.6926731941961608,0.09397160046358695,0.27512355696039037,0.3539227838733794,1.5313421029312504e-17,0.9999999999999999,1.0652814629086959e-17,1.0,1.4321484375,14,014.csv,014.csv
帶通,0.6090165924831594,0.2662138535201545,0.17204777642638924,0.4339843750000001,1.1304043793029412,0.09603023891116504,-1.464762011499457e-17,1.5231080031618982,5.970583372394641,0.6876459159017176,0.09254317087325217,0.28271234635651377,0.35430047771049455,-2.3303032001127724e-18,1.0000000000000002,1.0652814629086959e-17,1.0,1.4321484375,14,014.csv,014.csv
小波去噪,0.6207794829030514,0.2443583560967887,0.16115121734648963,0.52078125,1.175985222822558,0.06541630398937757,-2.1305629258173918e-17,1.4206416708643075,5.568915349788085,0.7019931999483969,0.08331242576116835,0.26248912419790527,0.3492649166358235,5.3264073145434795e-18,1.0,1.0652814629086959e-17,1.0,1.4321484375,14,014.csv,014.csv
NLMS,0.6150783478417368,0.3011545337645948,0.1889781114550566,0.0867968750000001,1.127141537717935,0.12357538964860801,-1.3316018286358699e-17,1.4689949164482907,5.758460072477299,0.6775208812102278,0.304390760457368,0.29684492591782863,0.42625218919514146,-1.9308226515220113e-17,1.0,1.0652814629086959e-17,1.0,1.4321484375,14,014.csv,014.csv
帶通+小波,0.6088965941051452,0.2632244423353437,0.12358973090888883,0.4339843750000001,1.1395319187798698,0.16454496664351317,-3.3955846630214683e-17,1.524209344407211,5.974900630076267,0.6887329862752947,0.06831414811450197,0.3159684593486716,0.3576718645794894,6.6580091431793495e-18,1.0,1.0652814629086959e-17,1.0,1.4321484375,14,014.csv,014.csv
帶通+小波+NLMS,0.6159722804643465,0.2706334839984824,0.18270325236384705,0.0867968750000001,1.1156990353073715,0.2700806933542756,-1.0652814629086959e-17,1.461256897385933,5.7281270377528575,0.6894341696236392,0.3012533309117632,0.37136885638284806,0.45401878563941683,6.6580091431793495e-18,1.0,1.0652814629086959e-17,1.0,1.4321484375,14,014.csv,014.csv
原始波形,0.6273630685597474,0.26502538668800996,0.1835867667211397,0.08679687499999988,1.47749711432204,0.2839757549540829,3.8616453030440226e-17,1.367566283025383,5.360859829459502,0.6972747709823678,0.30169508809041,0.3438044596678238,0.44759143958020053,3.928225394475816e-17,1.0,-3.728485120180436e-17,1.0,1.3453515624999999,15,015.csv,015.csv
帶通,0.6288723864617228,0.25784253975314625,0.18518719645373444,0.08679687499999988,1.3481822769078655,0.29234776601132695,-6.6580091431793495e-18,1.3557854359281585,5.314678908838381,0.7007946405914389,0.30249530295670735,0.3591045421444464,0.4541314952308643,-1.3316018286358699e-17,1.0,-3.728485120180436e-17,1.0,1.3453515624999999,15,015.csv,015.csv
小波去噪,0.6226610201296627,0.2632260912465568,0.3433235411002774,0.6509765624999999,1.3110533099719002,0.15496508978573068,2.6632036572717398e-17,1.4051834815325177,5.508319247607469,0.6956145656367427,0.17240618486332873,0.293834109715089,0.3872849534050535,0.0,1.0,-3.728485120180436e-17,1.0,1.3453515624999999,15,015.csv,015.csv
NLMS,0.6312744504184806,0.27137082419290515,0.17840204841088436,0.04339843750000005,1.3004298855245633,0.3682121389913469,0.0,1.3373179253973717,5.242286267557697,0.6968041013021045,0.4131622138021589,0.40145674953432453,0.5038076882128627,-5.3264073145434795e-18,1.0,-3.728485120180436e-17,1.0,1.3453515624999999,15,015.csv,015.csv
帶通+小波,0.6271422077588913,0.261378978395032,0.23552188522948425,0.08679687499999988,1.3327585119193965,0.2648775453315202,3.9948054859076094e-18,1.369301892278701,5.3676634177325075,0.6985656314279988,0.3276626473445823,0.34677728968122234,0.4576685228179345,6.6580091431793495e-18,1.0,-3.728485120180436e-17,1.0,1.3453515624999999,15,015.csv,015.csv
帶通+小波+NLMS,0.642180187057869,0.26767449030357876,0.5822726838986197,0.04339843750000005,1.2759879459547252,0.5012112135726464,-1.3316018286358699e-17,1.257512922280498,4.929450655339552,0.7036684967941234,0.6150975315460265,0.4702904258068657,0.5963521513823385,-1.864242560090218e-17,0.9999999999999998,-3.728485120180436e-17,1.0,1.3453515624999999,15,015.csv,015.csv
原始波形,0.6194040851892676,0.28457074816198147,0.20149191903924812,0.4339843750000001,1.4581860324882139,0.11772918357146352,-1.0652814629086959e-17,1.4320946837335127,5.61381116023537,0.6858706061507226,0.10726524217968161,0.26226660993725964,0.3518008194225546,2.6632036572717397e-18,1.0,1.0652814629086959e-17,1.0,1.3019531249999998,16,016.csv,016.csv
帶通,0.6149608714567577,0.2572371710906629,0.20349864456258798,0.30378906249999993,1.438307735170891,0.11133541671676891,0.0,1.4700162761586013,5.762463802541717,0.6940728431943872,0.12571727113573097,0.260727960921196,0.36017269175043803,-2.7963638401353266e-17,1.0,1.0652814629086959e-17,1.0,1.3019531249999998,16,016.csv,016.csv
小波去噪,0.6182821779164367,0.27397236986039286,0.1995864405330562,0.5641796875,1.537244649307463,0.16864755162673536,-1.198441645772283e-17,1.4415349903808838,5.650817162293064,0.6893176307744684,0.10156646530555276,0.2813879415162983,0.3574240125321065,1.3316018286358699e-17,1.0,1.0652814629086959e-17,1.0,1.3019531249999998,16,016.csv,016.csv
NLMS,0.6096563606737118,0.27576403246038483,0.33911583814056734,0.30378906250000015,1.4240639322890771,0.2727613255190744,-4.660606400225545e-18,1.5172566163605645,5.947645936133413,0.6843241838912624,0.1935258679247206,0.34264584963843403,0.40683196715147235,1.198441645772283e-17,1.0,1.0652814629086959e-17,1.0,1.3019531249999998,16,016.csv,016.csv
帶通+小波,0.6160716865836564,0.26256977521001157,0.29349404192704953,0.30378906249999993,1.4872178593761434,0.07929831710521983,-1.864242560090218e-17,1.4604001104015052,5.7247684327739,0.6925721934354303,0.17071496981796175,0.24067698493104087,0.36798804939481095,1.0652814629086959e-17,1.0,1.0652814629086959e-17,1.0,1.3019531249999998,16,016.csv,016.csv
帶通+小波+NLMS,0.6147289778994972,0.27600539320878603,0.6513090449509467,0.17359374999999977,1.4465339380738422,0.1342076348864023,-9.32121280045109e-18,1.47203546539747,5.770379024358083,0.6867689081176045,0.41377197377245933,0.27147457732468894,0.45733848640491753,-1.0652814629086959e-17,1.0,1.0652814629086959e-17,1.0,1.3019531249999998,16,016.csv,016.csv
原始波形,0.6257236218915723,0.2736902359835858,0.2337257808582065,0.0867968750000001,1.4828768357027253,0.304058111222398,-9.32121280045109e-18,1.380522077716167,5.4116465446473745,0.6931456285760089,0.32676459515894296,0.3534083559495042,0.4577728598948187,-7.989610971815219e-18,0.9999999999999999,1.3316018286358699e-17,1.0000000000000002,1.4321484375,17,017.csv,017.csv
帶通,0.6322852486444821,0.2375822056058624,0.23494692351745244,0.0867968750000001,1.4940351352387768,0.2938942165917051,-1.864242560090218e-17,1.3296475328036388,5.212218328590264,0.7104086576024282,0.3273751664885659,0.3474254387473321,0.4617364209461088,3.129264297294294e-17,0.9999999999999998,1.3316018286358699e-17,1.0000000000000002,1.4321484375,17,017.csv,017.csv
小波去噪,0.6164391259251041,0.2593745132080318,0.3172107375191033,0.5641796874999998,1.6757743956927735,0.16407544821012593,7.656710514656252e-18,1.4572394862278388,5.7123787860131285,0.6939865725868309,0.1603786137985763,0.2688995166406579,0.37442156767535506,5.3264073145434795e-18,0.9999999999999998,1.3316018286358699e-17,1.0000000000000002,1.4321484375,17,017.csv,017.csv
NLMS,0.6304582580298848,0.2921765856593871,0.23230525548201092,0.0,1.419862418005322,0.1956966459759674,4.660606400225545e-18,1.3435547846661164,5.266734755891177,0.6885474685156376,0.6161526277410054,0.30447164019795425,0.5363905788181991,-1.8975326058061146e-17,1.0,1.3316018286358699e-17,1.0000000000000002,1.4321484375,17,017.csv,017.csv
帶通+小波,0.63113896845556,0.24009161819022862,0.266638595897917,0.0867968750000001,1.5397781115259992,0.28408047987348883,-1.3316018286358699e-18,1.3383505095963044,5.246333997617513,0.7088473817012166,0.3432210026787982,0.33890783153102755,0.46365873863701407,3.728485120180436e-17,1.0,1.3316018286358699e-17,1.0000000000000002,1.4321484375,17,017.csv,017.csv
帶通+小波+NLMS,0.6374483090673594,0.2828258594286319,0.6619047245970175,0.0,1.6428915487149545,0.5378432538349152,-1.864242560090218e-17,1.2913601860520558,5.0621319293240585,0.6955496633596778,0.8309523622985088,0.4581083531919858,0.6615367929500574,1.3316018286358699e-18,0.9999999999999999,1.3316018286358699e-17,1.0000000000000002,1.4321484375,17,017.csv,017.csv
原始波形,0.6294132128812959,0.25004291574786225,0.2026266335258501,0.43398437499999987,1.5123004351152831,0.10521965746426547,-1.6645022857948375e-17,1.3515976127482359,5.298262641973085,0.704090286925916,0.10783259942298261,0.25163061184044605,0.35451783272978155,1.5979221943630438e-17,1.0000000000000002,-9.32121280045109e-18,1.0,1.475546875,18,018.csv,018.csv
帶通,0.6253659522119903,0.23544974099698537,0.21354014218939077,0.13019531249999994,1.3507567216654415,0.10480028533789529,-7.989610971815219e-18,1.3833710205508263,5.422814400559239,0.7077906648299123,0.242770083020011,0.2650976095704843,0.4052194524734692,1.6645022857948375e-17,1.0,-9.32121280045109e-18,1.0,1.475546875,18,018.csv,018.csv
小波去噪,0.6295816122225071,0.2651200189556474,0.19421828310912959,0.43398437499999987,1.2290532960173486,0.17918140274240704,-1.2650217372040764e-17,1.3502972055692521,5.2931650458314685,0.6983477442334436,0.10362842421462236,0.3139011747427242,0.3719591143969301,0.0,0.9999999999999999,-9.32121280045109e-18,1.0,1.475546875,18,018.csv,018.csv
NLMS,0.62000573216285,0.2567962019474767,0.28982658736687894,0.5207812499999998,1.3556690059924124,0.30430920260178546,1.464762011499457e-17,1.427068588757251,5.594108867928424,0.69676578646282,0.147650110771363,0.36440852947504915,0.402941475569744,1.997402742953805e-17,0.9999999999999998,-9.32121280045109e-18,1.0,1.475546875,18,018.csv,018.csv
帶通+小波,0.6249098947149206,0.24258487339488455,0.18824777853241542,0.2603906250000001,1.3305418717855335,0.11510238408878422,-3.062684205862501e-17,1.3870154633322427,5.437100616262391,0.7047535240218117,0.1311158957535796,0.2720935721033813,0.36932099729292417,2.6632036572717397e-18,0.9999999999999999,-9.32121280045109e-18,1.0,1.475546875,18,018.csv,018.csv
帶通+小波+NLMS,0.6205293727720435,0.26002419978216995,0.6293026690799826,0.13019531249999994,1.3029784933578492,0.13236493405920577,-1.5313421029312504e-17,1.4227146177511572,5.577041301584536,0.6957811497604824,0.4506513464653069,0.283292614363622,0.4765750368631371,-9.32121280045109e-18,1.0,-9.32121280045109e-18,1.0,1.475546875,18,018.csv,018.csv
原始波形,0.6292923180480827,0.25148053611998333,0.17529233245720321,0.5641796875,1.6003449725369259,0.34243575692723627,-9.987013714769025e-18,1.3525322262571084,5.301926326927865,0.7034704557847338,0.08941941126762627,0.36350005843614475,0.3854633084961683,1.3316018286358699e-18,0.9999999999999999,0.0,1.0,1.38875,19,019.csv,019.csv
帶通,0.6365809466721465,0.24043432720748983,0.17100506246769615,0.13019531249999994,1.4928096719299313,0.34506436415165886,2.0639828343855984e-17,1.297690643648469,5.086947323101998,0.7114336140202585,0.22150254315916368,0.373109067519675,0.4353484082330324,1.6977923315107342e-17,1.0,0.0,1.0,1.38875,19,019.csv,019.csv
小波去噪,0.6280905396836578,0.2842822970861706,0.18493954062843387,0.17359375,1.523810649118804,0.14519593425084276,1.0652814629086959e-17,1.3618707432719348,5.338533313625985,0.6903223552756355,0.18058722161120275,0.27071108633845603,0.3805402210750981,1.3316018286358699e-18,0.9999999999999997,0.0,1.0,1.38875,19,019.csv,019.csv
NLMS,0.62851369431937,0.26887707052520377,0.21761006216984316,0.0867968750000001,1.5399662812937591,0.45418695585222507,-7.323810057497285e-18,1.358572629186403,5.3256047064107,0.6963754457353132,0.3187067358147613,0.42394648486655095,0.4796762221388751,2.4634633829763593e-17,1.0,0.0,1.0,1.38875,19,019.csv,019.csv
帶通+小波,0.6368069173284501,0.2509801202837327,0.17364038892871914,0.13019531249999994,1.4496464573157708,0.3266308369131085,-7.323810057497285e-18,1.2960375292456734,5.08046711464304,0.7074223779525715,0.22282020638967517,0.36742650497957885,0.43255636310727513,1.997402742953805e-17,1.0,0.0,1.0,1.38875,19,019.csv,019.csv
帶通+小波+NLMS,0.6340256105770459,0.26088337828148167,0.6223092813736129,0.13019531249999994,1.4065861910255888,0.3562264814542154,1.3316018286358699e-18,1.316577193023792,5.160982596653264,0.7021981834575335,0.44715465261212206,0.3858764207306131,0.5117430856000896,-2.4634633829763593e-17,1.0,0.0,1.0,1.38875,19,019.csv,019.csv
原始波形,0.617450668763419,0.26197620669085175,0.3054654687002248,0.2603906249999999,1.472219955195205,0.24031937626461478,8.988312343292121e-18,1.4485896933069249,5.678471597763146,0.6934900009512475,0.18972474083748436,0.32240706460432533,0.40187393546435235,-2.097272880101495e-17,1.0,-2.9961041144307074e-17,1.0,1.6491406249999998,20,020.csv,020.csv
帶通,0.6218367022674154,0.2588362274291086,0.3566630691583813,0.2603906249999999,1.269810629590612,0.223588924560712,4.660606400225545e-18,1.4119264562930482,5.534751708668749,0.6968930695515746,0.21532354106656262,0.33207715612349,0.41476458891387574,3.9948054859076094e-18,1.0,-2.9961041144307074e-17,1.0,1.6491406249999998,20,020.csv,020.csv
小波去噪,0.6187635160912746,0.26543186051328804,0.29202679810458665,0.43398437499999987,1.135078068703707,0.1426905313312543,-1.9974027429538047e-18,1.4374738422684172,5.634897461692195,0.6928191058223885,0.1525326817123509,0.3055287399512164,0.3836268424953186,1.0652814629086959e-17,1.0,-2.9961041144307074e-17,1.0,1.6491406249999998,20,020.csv,020.csv
NLMS,0.619914670224571,0.27985736197151395,0.2378711076132533,0.17359374999999977,1.2426951868763894,0.1540732771269884,1.5313421029312504e-17,1.42782769004039,5.597084544958328,0.6879031114359724,0.2070530051036127,0.29998267372951093,0.39831293008969865,6.990909600338316e-18,0.9999999999999999,-2.9961041144307074e-17,1.0,1.6491406249999998,20,020.csv,020.csv
帶通+小波,0.6219544526558644,0.25973514747469867,0.3002765929942205,0.2603906249999999,1.192582210272145,0.24154781310044268,1.5979221943630438e-17,1.4109604622836052,5.530965012151732,0.6966051402324399,0.18713030298448222,0.34881552690886664,0.41085032337526295,1.997402742953805e-17,1.0,-2.9961041144307074e-17,1.0,1.6491406249999998,20,020.csv,020.csv
帶通+小波+NLMS,0.6236185373331271,0.254033574623865,0.6184771955343535,0.04339843750000005,1.2050777571214322,0.21584152770321485,7.323810057497285e-18,1.397407586220882,5.477837737985857,0.6996421481281554,0.6331997873638935,0.33467013737606466,0.5558373576227046,-2.7297837487035332e-17,1.0,-2.9961041144307074e-17,1.0,1.6491406249999998,20,020.csv,020.csv
原始波形,0.6169004222879431,0.2684369429334484,0.2652539384096528,0.3905859374999998,1.3268456095505208,0.11216630287313266,1.997402742953805e-17,1.453285617564525,5.696879620852938,0.6907370276741218,0.14268879585167427,0.2709663383346371,0.36813072062014446,2.0639828343855984e-17,1.0,1.0652814629086959e-17,1.0,1.6491406249999998,21,021.csv,021.csv
帶通,0.6115415231761246,0.2581962792898722,0.2440089757604676,0.3905859374999998,0.9934493322562495,0.1200985380485841,2.3303032001127723e-17,1.5002111716805746,5.880827792987852,0.6919925628604471,0.13206631452708167,0.3108707932584114,0.3783098902153134,1.731082377226631e-17,1.0,1.0652814629086959e-17,1.0,1.6491406249999998,21,021.csv,021.csv
小波去噪,0.6178835511224056,0.24922512331526503,0.2538951603327517,0.13019531250000016,1.2812182191309789,0.20967173467281322,1.6645022857948374e-18,1.4449108161132842,5.664050399164074,0.6986440213161276,0.26294759209169116,0.32401700301507613,0.42853620547429827,3.9948054859076094e-18,1.0,1.0652814629086959e-17,1.0,1.6491406249999998,21,021.csv,021.csv
NLMS,0.6202034432054124,0.25594272586854055,0.2480407514629832,0.3905859374999998,1.1711335473063933,0.3148474463874394,1.8309525143743212e-17,1.425422431095652,5.5876559298949555,0.6971948757881465,0.13408220237833948,0.3877181703594975,0.40633174950866113,-5.659307771702447e-18,1.0,1.0652814629086959e-17,1.0,1.6491406249999998,21,021.csv,021.csv
帶通+小波,0.6115503919866216,0.25663854382381485,0.260617341087824,0.3905859374999998,0.9877088870252633,0.12176976185732409,2.6632036572717397e-18,1.5001316635505266,5.880516121118064,0.6925990974979934,0.14037049719075986,0.31243077040158324,0.38180012169677885,-1.464762011499457e-17,1.0,1.0652814629086959e-17,1.0,1.6491406249999998,21,021.csv,021.csv
帶通+小波+NLMS,0.6332580580065819,0.2403132904358168,0.5246349581007064,0.3905859374999998,0.9393962179347434,0.13934210392988772,1.5979221943630438e-17,1.3223205643597542,5.183496612290236,0.7098197573439,0.2723793056972011,0.32748324906845694,0.436560770703186,-2.6632036572717397e-18,1.0,1.0652814629086959e-17,1.0,1.6491406249999998,21,021.csv,021.csv
原始波形,0.6305318131295563,0.2582756392146706,0.20428256503935233,0.2603906250000001,1.460258776805429,0.14486951000149131,-6.6580091431793495e-18,1.342991122598114,5.264525200584607,0.7014570585202383,0.13913328900704805,0.27566540891156505,0.3720852521462838,1.864242560090218e-17,0.9999999999999999,2.6632036572717397e-18,1.0,1.5189453124999999,22,022.csv,022.csv
帶通,0.6242032274932205,0.2579808528508712,0.19232237931957413,0.2603906250000001,1.316006768947916,0.14727230297304256,-9.987013714769025e-18,1.3926889430026361,5.459340656570333,0.6984066263689483,0.13315319614715895,0.289524985104712,0.3736949358736064,-3.795065211612229e-17,0.9999999999999999,2.6632036572717397e-18,1.0,1.5189453124999999,22,022.csv,022.csv
小波去噪,0.6212820420762186,0.2683125618566019,0.153621586022096,0.30378906250000015,1.2585991580375382,0.13198183307712627,-1.731082377226631e-17,1.4164893389701907,5.552638208763147,0.6929753897713997,0.10077874186548492,0.2873670727372763,0.36037373479138696,1.3316018286358699e-17,1.0,2.6632036572717397e-18,1.0,1.5189453124999999,22,022.csv,022.csv
NLMS,0.6224678893775263,0.2670480195633855,0.31510687023083606,0.04339843750000005,1.353014619630491,0.3952232783741899,-2.0639828343855984e-17,1.4067592303292338,5.514496182890596,0.6940520972195364,0.48151462471213474,0.4101050065587427,0.5285572428301379,-9.32121280045109e-18,1.0,2.6632036572717397e-18,1.0,1.5189453124999999,22,022.csv,022.csv
帶通+小波,0.6226310043766925,0.2611768633583517,0.30521196055368127,0.2603906250000001,1.2761276508587756,0.0937319257912076,-3.3290045715896748e-18,1.4054282163801382,5.509278608210141,0.6963878507840935,0.18959798676421252,0.2665372980297961,0.38417437852603403,-1.3316018286358699e-17,1.0,2.6632036572717397e-18,1.0,1.5189453124999999,22,022.csv,022.csv
帶通+小波+NLMS,0.6245098952763215,0.2582031572188891,0.5327014122165957,0.04339843750000005,1.2545561693539071,0.11010208618249527,0.0,1.3902229055447117,5.44967378973527,0.6984740925135469,0.5903118957050146,0.2768241826548035,0.5218700569577883,0.0,1.0,2.6632036572717397e-18,1.0,1.5189453124999999,22,022.csv,022.csv
原始波形,0.6335092848464201,0.26356835365366,0.2647695986555298,0.2603906250000001,1.3482916416999944,0.16156886583282168,9.32121280045109e-18,1.320437073588949,5.17611332846868,0.7009071945148826,0.16937680581513678,0.2937051754345914,0.38799639192153695,-2.6632036572717397e-18,0.9999999999999999,0.0,0.9999999999999999,1.475546875,23,023.csv,023.csv
帶通,0.6318087337612966,0.2459731030507596,0.25789150747228873,0.2603906250000001,1.235139323955577,0.14825087712392826,7.989610971815219e-18,1.3332562132890127,5.22636435609293,0.7068759951460046,0.16593776022351625,0.2978251402499728,0.3902129652064979,1.9974027429538047e-18,0.9999999999999999,0.0,0.9999999999999999,1.475546875,23,023.csv,023.csv
小波去噪,0.6332949902877767,0.27698616511651186,0.26522182740475486,0.43398437499999987,1.1484280355153225,0.09178895438158355,5.3264073145434795e-18,1.3220434541809927,5.182410340389491,0.6956799875332389,0.139130196362435,0.2786227751531063,0.3711443196829267,2.1305629258173918e-17,1.0,0.0,0.9999999999999999,1.475546875,23,023.csv,023.csv
NLMS,0.6171114486715518,0.27671610013724546,0.32088900121449815,0.04339843750000005,1.2624888599570394,0.3437399111253284,-1.3316018286358699e-17,1.4514820642666029,5.689809691925083,0.6876905939509543,0.4844056902039658,0.3928655188334129,0.5216539343294443,-7.989610971815219e-18,1.0,0.0,0.9999999999999999,1.475546875,23,023.csv,023.csv
帶通+小波,0.6322473754810953,0.2517920003905727,0.22685128976849678,0.2603906250000001,1.1497990470730313,0.19225209827721784,-2.0639828343855984e-17,1.3299338730141952,5.213340782215645,0.7048268984832251,0.15041765137162028,0.3287059270954598,0.39465015898343503,1.3316018286358699e-17,0.9999999999999999,0.0,0.9999999999999999,1.475546875,23,023.csv,023.csv
帶通+小波+NLMS,0.6225951936791918,0.23690696578535597,0.616541040665864,0.21699218750000004,1.2065494238494632,0.20434947484058316,3.9948054859076094e-18,1.4057202789577843,5.510423493514514,0.7058299441481264,0.3653637890257366,0.32877287956737244,0.46665553758041184,5.992208228861415e-18,1.0,0.0,0.9999999999999999,1.475546875,23,023.csv,023.csv
原始波形,0.6303263453330668,0.2551030598348649,0.26949982773822273,0.04339843750000005,1.6349265486510176,0.04013622967710016,9.987013714769025e-18,1.3445664449126762,5.270700464057691,0.702581492321507,0.4587111034658281,0.20982672509506028,0.4570397736274651,2.396883291544566e-17,1.0,-3.1958443887260875e-17,0.9999999999999999,1.3453515624999999,24,024.csv,024.csv
帶通,0.6309302689382252,0.25214183317989336,0.27053717921146053,0.04339843750000005,1.5033323159682752,0.03451792407403219,1.5313421029312504e-17,1.3399432151234985,5.252577403284114,0.7040323878659134,0.459229779202447,0.21699273162509525,0.4600849662311519,1.1318615543404894e-17,1.0,-3.1958443887260875e-17,0.9999999999999999,1.3453515624999999,24,024.csv,024.csv
小波去噪,0.6269284428877682,0.29162706385917075,0.2591871108751626,0.04339843750000005,1.6498407898242096,0.19219537937989906,2.5966235658399464e-17,1.370984612585194,5.374259681333961,0.6869877638871369,0.45355474503429805,0.28478827137322493,0.47511026009821994,0.0,1.0,-3.1958443887260875e-17,0.9999999999999999,1.3453515624999999,24,024.csv,024.csv
NLMS,0.6239971497227785,0.2592669237322474,0.3558730553150258,0.04339843750000005,1.6009632854431277,0.368532066964997,6.924329508906523e-17,1.3943495191879636,5.465850115216817,0.6978070911888108,0.5018977172542296,0.37650250325443324,0.5254024372324912,1.2650217372040764e-17,1.0000000000000002,-3.1958443887260875e-17,0.9999999999999999,1.3453515624999999,24,024.csv,024.csv
帶通+小波,0.6321622271445819,0.2562618384696785,0.22267877729595303,0.04339843750000005,1.5428357309816727,0.03781235853948325,3.2624244801578815e-17,1.3305779369105988,5.215865512689547,0.70305076116172,0.43530057824469326,0.21553704846355023,0.4512961292899878,-6.6580091431793495e-18,1.0,-3.1958443887260875e-17,0.9999999999999999,1.3453515624999999,24,024.csv,024.csv
帶通+小波+NLMS,0.6221487944731663,0.2693817960779367,0.49370936320858294,0.04339843750000005,1.5811116139459924,0.2473776478985364,2.5966235658399464e-17,1.4093681700003298,5.524723226401292,0.6930001794551002,0.5708158712010082,0.31740380988728506,0.5270732868477979,-1.9974027429538047e-18,0.9999999999999999,-3.1958443887260875e-17,0.9999999999999999,1.3453515624999999,24,024.csv,024.csv
原始波形,0.630684062500853,0.2594001952358566,0.21437801731637812,0.0,1.3057272636075001,0.48975390629828064,-2.396883291544566e-17,1.3418254247769563,5.259955665125669,0.7010991337228487,0.607189008658189,0.46172827285713947,0.5900054717460591,7.989610971815219e-18,0.9999999999999999,0.0,0.9999999999999999,1.4321484375,25,025.csv,025.csv
帶通,0.6349670324788703,0.24523771474595063,0.21093697581985033,0.0,1.189291151431104,0.4922803689765059,0.0,1.3095775536666001,5.133544010373073,0.7087427662115877,0.6054684879099251,0.47452460913326105,0.5962452877515914,-6.6580091431793495e-18,1.0,0.0,0.9999999999999999,1.4321484375,25,025.csv,025.csv
小波去噪,0.6235893094492425,0.2521428037932195,0.22731404579771927,0.04339843750000005,1.3005331201774095,0.31093260465082984,3.3290045715896748e-18,1.3976440502684535,5.478764677052338,0.7003615309730506,0.43761821249557636,0.37280722891961304,0.5035956574627467,0.0,1.0,0.0,0.9999999999999999,1.4321484375,25,025.csv,025.csv
NLMS,0.6333961704256659,0.26021794919851365,0.18288310405351532,0.04339843750000005,1.236437793623251,0.32389437809123006,6.6580091431793495e-18,1.3212846728065146,5.179435917401538,0.7021398622329764,0.41540274162347435,0.3855170112985069,0.5010198717183193,-3.462164754453262e-17,1.0,0.0,0.9999999999999999,1.4321484375,25,025.csv,025.csv
帶通+小波,0.6332990387507016,0.24100488123947217,0.239651124097764,0.04339843750000005,1.229928723459368,0.4712671007604475,3.3290045715896748e-18,1.3220130824360603,5.182291283149357,0.7095684146336216,0.4437867516455987,0.4598559637425361,0.5377370433405855,-1.198441645772283e-17,0.9999999999999999,0.0,0.9999999999999999,1.4321484375,25,025.csv,025.csv
帶通+小波+NLMS,0.6340000535577104,0.2544056755049219,0.410190404798276,0.04339843750000005,1.186885164237222,0.4147064444230048,7.323810057497285e-18,1.3167678987869549,5.161730163244863,0.7046886201304556,0.5290563919958547,0.43598891290831965,0.5565779750115434,7.323810057497285e-18,1.0,0.0,0.9999999999999999,1.4321484375,25,025.csv,025.csv
原始波形,0.6248447485962185,0.24851629436780456,0.2713298560495149,0.30378906249999993,1.525812925405988,0.256998719825085,-1.5313421029312504e-17,1.3875371442853246,5.439145605598473,0.7024009502095526,0.15963287687919442,0.32645542980621134,0.39616308563165276,-1.1318615543404894e-17,1.0000000000000002,-7.989610971815219e-18,1.0,1.475546875,26,026.csv,026.csv
帶通,0.6249480112330056,0.23361594653589599,0.2591119935673024,0.30378906249999993,1.28445426976588,0.2613563078865481,3.3290045715896748e-18,1.3867103577704556,5.435904602460186,0.7083069053722939,0.1535239456380882,0.349548807918432,0.4037932196429381,-1.2983117829199732e-17,1.0,-7.989610971815219e-18,1.0,1.475546875,26,026.csv,026.csv
小波去噪,0.6169110532531323,0.25345584208088573,0.28218256176892226,0.3471875,1.48284534583392,0.2181415916182515,-5.3264073145434795e-18,1.45319468135045,5.696523150893763,0.6965125345007652,0.15662065133061445,0.31045265023633484,0.38786194535590485,-1.0652814629086959e-17,1.0,-7.989610971815219e-18,1.0,1.475546875,26,026.csv,026.csv
NLMS,0.6319046925376454,0.25447694579891517,0.32459027522097006,0.21699218750000004,1.3475245126683209,0.3631649565397902,4.926926765952719e-17,1.3325284628522558,5.223511574380843,0.703613309924997,0.2193884063032896,0.3945727994792244,0.439191505235837,1.3981819200676633e-17,1.0,-7.989610971815219e-18,1.0,1.475546875,26,026.csv,026.csv
帶通+小波,0.624203815958207,0.23763949090834335,0.2395729120675293,0.30378906249999993,1.2548354082086213,0.2660762731665152,1.997402742953805e-17,1.392684205093612,5.459322083966959,0.7063453562572166,0.14375440488820163,0.3547838117574959,0.4016278576343047,6.658009143179349e-19,1.0,-7.989610971815219e-18,1.0,1.475546875,26,026.csv,026.csv
帶通+小波+NLMS,0.6239287131241149,0.24078670237968056,0.6231100902840176,0.2603906249999999,1.286196646887367,0.22299695950250553,5.3264073145434795e-18,1.3949015922925283,5.468014241786711,0.7049689877694321,0.3485470516293808,0.3302023260195713,0.46123945513946135,6.325108686020382e-18,1.0,-7.989610971815219e-18,1.0,1.475546875,26,026.csv,026.csv
原始波形,0.6180449232412424,0.27149813230630065,0.24171226494916231,0.17359374999999977,1.4032428229610707,0.12213930612108484,-2.7963638401353266e-17,1.4435428409721955,5.658687936611006,0.6901408151663236,0.20897358377156716,0.2691218711813658,0.3894120900397522,2.6632036572717397e-18,0.9999999999999999,-3.5953249373168485e-17,0.9999999999999999,1.475546875,27,027.csv,027.csv
帶通,0.6192712318154882,0.2604900122472632,0.25052933856656445,0.17359374999999977,1.226835697663938,0.11858315462918873,-2.396883291544566e-17,1.433207939927471,5.618175124515687,0.6949725427264954,0.21338212058026823,0.28382543067635113,0.3973933646610382,-1.864242560090218e-17,0.9999999999999999,-3.5953249373168485e-17,0.9999999999999999,1.475546875,27,027.csv,027.csv
小波去噪,0.6189364066835554,0.27514446819634586,0.2842131648357522,0.08679687499999988,1.2134847659057546,0.19025849647391174,6.658009143179349e-19,1.4360191457691422,5.629195051415038,0.6891994019100214,0.35200828714771626,0.32101740780393656,0.4540750322872247,-1.0652814629086959e-17,1.0,-3.5953249373168485e-17,0.9999999999999999,1.475546875,27,027.csv,027.csv
NLMS,0.6236947423718278,0.2653285418398928,0.3202541374051334,0.17359374999999977,1.212646221158787,0.188933943383496,-6.658009143179349e-19,1.3967913229842026,5.475421986098074,0.6953243372473865,0.24824451999955272,0.32044073795346184,0.421336531733467,-1.6645022857948374e-18,1.0,-3.5953249373168485e-17,0.9999999999999999,1.475546875,27,027.csv,027.csv
帶通+小波,0.6194706765987937,0.2627752713091611,0.1771366965816243,0.17359374999999977,1.210659769548186,0.11287514470975474,-1.6977923315107342e-17,1.431537141272746,5.611625593789165,0.694192675841732,0.17668579958779818,0.2826143938122063,0.38449762308057883,-2.1305629258173918e-17,0.9999999999999998,-3.5953249373168485e-17,0.9999999999999999,1.475546875,27,027.csv,027.csv
帶通+小波+NLMS,0.6290572358380799,0.2563025137602726,0.5822908426339712,0.04339843750000005,1.170837242729837,0.13170352290082935,-3.8616453030440226e-17,1.3543521037939448,5.309060246872264,0.7014825257257146,0.6151066109137023,0.29617764224802245,0.5375889262958131,-2.3303032001127723e-17,1.0,-3.5953249373168485e-17,0.9999999999999999,1.475546875,27,027.csv,027.csv
原始波形,0.6262208045761679,0.2612412258281221,0.29198453057250695,0.2603906250000001,1.4253459451668575,0.23227173945405802,1.6312122400789408e-17,1.3765753078911689,5.396175206933382,0.6981579674740046,0.18298427177362536,0.322292026953334,0.40114475540032135,-1.198441645772283e-17,1.0,-2.929524022998914e-17,0.9999999999999998,1.5189453124999999,28,028.csv,028.csv
帶通,0.6237282112282687,0.25618238903448265,0.293177682744437,0.2603906250000001,1.3431587098188067,0.22907632282036622,1.198441645772283e-17,1.3965207833583668,5.474361470764798,0.698864498944852,0.1835808478595904,0.32792532887126574,0.40345689189190276,-1.864242560090218e-17,1.0,-2.929524022998914e-17,0.9999999999999998,1.5189453124999999,28,028.csv,028.csv
小波去噪,0.6232536947752564,0.2997947386102744,0.2797236697776926,0.0867968750000001,1.6601625804540259,0.02716329282011917,1.9308226515220113e-17,1.4003633080561737,5.489424167580201,0.682111996220859,0.349763539618686,0.2015400831138275,0.4111385396511242,-5.3264073145434795e-18,1.0,-2.929524022998914e-17,0.9999999999999998,1.5189453124999999,28,028.csv,028.csv
NLMS,0.620223832949268,0.26531454327328363,0.22600118879807019,0.0,1.4317917992323466,0.29136817903104045,1.864242560090218e-17,1.4252528185273072,5.586991048627044,0.6935942507015325,0.6130005943990351,0.3512937967930252,0.5526295472978643,1.964112697237908e-17,1.0,-2.929524022998914e-17,0.9999999999999998,1.5189453124999999,28,028.csv,028.csv
帶通+小波,0.6244579904632046,0.26105202956407975,0.21242894439604065,0.2603906250000001,1.3604827761675244,0.22609278704089175,2.263723108680979e-17,1.3906398654567473,5.45130827259045,0.6973494168702017,0.1432064786853922,0.324867468873429,0.3884744548096743,1.864242560090218e-17,1.0,-2.929524022998914e-17,0.9999999999999998,1.5189453124999999,28,028.csv,028.csv
帶通+小波+NLMS,0.6227817160695143,0.2613512441071691,0.5993495853996089,0.0,1.4589204711383772,0.3824718997677683,8.655411886133154e-18,1.4041999857367216,5.504463944087949,0.6963960632804314,0.7996747926998045,0.3945772152353906,0.6302160237385421,1.5979221943630438e-17,1.0000000000000002,-2.929524022998914e-17,0.9999999999999998,1.5189453124999999,28,028.csv,028.csv
原始波形,0.6202457311188802,0.2621728489238385,0.3419133820366435,0.43398437499999987,1.4458973268359427,0.12443186021661526,-3.062684205862501e-17,1.425070690117356,5.586277105260035,0.6948118785843542,0.17747597367837933,0.2666398830331056,0.3796425784319464,7.989610971815219e-18,1.0,-9.32121280045109e-18,1.0,1.475546875,29,029.csv,029.csv
帶通,0.6207733085160583,0.2503190064327457,0.33531568274281126,0.21699218750000004,1.2835051777194502,0.1257024503051742,2.0639828343855984e-17,1.4206927933287443,5.569115749848677,0.699662844375497,0.22475111006421017,0.28181284822162384,0.4020756008871103,1.5313421029312504e-17,1.0,-9.32121280045109e-18,1.0,1.475546875,29,029.csv,029.csv
小波去噪,0.6197777719884826,0.2508394438896611,0.29314135981662687,0.30378906249999993,1.453389338698763,0.09751517641887218,-8.655411886133154e-18,1.4289699726231029,5.601562292682563,0.698962534910872,0.17053862876275042,0.2525572836402444,0.37401948243795563,-1.0652814629086959e-17,1.0,-9.32121280045109e-18,1.0,1.475546875,29,029.csv,029.csv
NLMS,0.6211512153045272,0.2665912387050017,0.28120341545879335,0.0867968750000001,1.364246223898128,0.024479829658299295,7.656710514656252e-18,1.4175686198065274,5.556868989641587,0.6935686641307013,0.3505034124592364,0.2237238097576604,0.4225986287825327,1.564632148647147e-17,0.9999999999999998,-9.32121280045109e-18,1.0,1.475546875,29,029.csv,029.csv
帶通+小波,0.621678659721857,0.25194574947501347,0.2671540924408322,0.21699218750000004,1.3002417059080889,0.12206592132521545,-1.9974027429538047e-18,1.413224465309456,5.539839904013067,0.6994827824348346,0.19067031491322067,0.2784014218620407,0.38951817307003206,2.929524022998914e-17,1.0,-9.32121280045109e-18,1.0,1.475546875,29,029.csv,029.csv
帶通+小波+NLMS,0.6235275245661466,0.2517338328864908,0.5636790574835222,0.0867968750000001,1.3274002576019963,0.2008460741848114,-3.6619050287486425e-18,1.3981440962052638,5.480724857124634,0.7004895835789415,0.4917412334716008,0.31525501468923206,0.5024952772465915,-2.7297837487035332e-17,1.0,-9.32121280045109e-18,1.0,1.475546875,29,029.csv,029.csv
原始波形,0.6174036205060193,0.2523190389668464,0.22516480624448101,0.04339843749999983,1.6307408482433448,0.02475354759317108,-8.655411886133154e-18,1.448990352440513,5.680042181566811,0.6972002133844009,0.43654359271895793,0.20243730383088018,0.445393703311413,-1.0319914171927992e-17,1.0000000000000002,-2.396883291544566e-17,1.0,1.3019531249999998,30,030.csv,030.csv
帶通,0.6187043354039534,0.247037383500616,0.23712174911364614,0.04339843749999983,1.6448727908871925,0.02253220449170552,-2.9961041144307074e-17,1.4379722734301403,5.63685131184615,0.6999079138537787,0.4425220641535405,0.20031111103520957,0.4475803630141763,-4.394286034498371e-17,1.0,-2.396883291544566e-17,1.0,1.3019531249999998,30,030.csv,030.csv
小波去噪,0.618573946151852,0.28860113959369416,0.26246751997543033,0.5641796875,2.152326962310617,0.1747209700741754,-1.5979221943630438e-17,1.4390713143062894,5.641159552080654,0.6839424812275268,0.13300700502673982,0.24597347346691295,0.3543076532403932,2.5300434744081527e-17,1.0,-2.396883291544566e-17,1.0,1.3019531249999998,30,030.csv,030.csv
NLMS,0.6221682079940634,0.28267475262977804,0.22072089712080625,0.5641796875,1.7700567327825603,0.09757554011120885,-1.9308226515220113e-17,1.4092092492478498,5.524100257051571,0.6879665580216899,0.11213369359942779,0.22928948833548352,0.34312991331886705,-7.989610971815219e-18,0.9999999999999998,-2.396883291544566e-17,1.0,1.3019531249999998,30,030.csv,030.csv
帶通+小波,0.6194318805655462,0.25710055948510047,0.2012771579635066,0.04339843749999983,1.687687230430595,0.012975136463180789,-4.660606400225545e-18,1.4318619266919483,5.612898752632438,0.6963611643658629,0.4245997685784707,0.1925211194346055,0.4378273507929797,5.3264073145434795e-18,1.0,-2.396883291544566e-17,1.0,1.3019531249999998,30,030.csv,030.csv
帶通+小波+NLMS,0.6133652494781757,0.2860698429224283,0.5403941728355244,0.0,1.7449281695439556,0.08266576041998083,-1.2650217372040764e-17,1.483993196082877,5.8172533286448775,0.6822876984403763,0.7701970864177622,0.223487009249757,0.5586572647026319,-6.325108686020382e-18,0.9999999999999999,-2.396883291544566e-17,1.0,1.3019531249999998,30,030.csv,030.csv
原始波形,0.6200056675820664,0.2624016603258901,0.35650062101489277,0.21699218750000004,1.4112541618001206,0.1490711177760425,-1.1318615543404894e-17,1.4270691269048863,5.594110977467154,0.6946038356528861,0.23534357920025095,0.2818965280969765,0.4039479809833712,-1.0652814629086959e-17,1.0,1.7643724229425275e-17,1.0,1.475546875,31,031.csv,031.csv
帶通,0.622268926741737,0.23750923370101282,0.3636119907713756,0.21699218750000004,1.2504042239687172,0.15157083102144855,-2.1971430172491855e-17,1.408385162077277,5.520869835342926,0.7054292680442604,0.23889926407849238,0.29796772154915735,0.41409875122397005,-4.9935068573845125e-18,1.0000000000000002,1.7643724229425275e-17,1.0,1.475546875,31,031.csv,031.csv
小波去噪,0.6191149180070413,0.2721887697423384,0.2938538340260521,0.2603906249999999,1.3639259630017164,0.266389083164068,-2.3303032001127723e-17,1.4345193737583903,5.62331594513289,0.6904126888187114,0.183918923500398,0.3447070880092915,0.4063462334428003,-1.3316018286358699e-17,1.0,1.7643724229425275e-17,1.0,1.475546875,31,031.csv,031.csv
NLMS,0.6262001670524333,0.25820964621048537,0.3662043946878936,0.21699218750000004,1.3210335575384953,0.2522944526575911,-7.989610971815219e-18,1.3767388246041221,5.396816192448159,0.6993167222369486,0.24019546603675135,0.34156849776024373,0.4270268953446479,5.3264073145434795e-18,0.9999999999999999,1.7643724229425275e-17,1.0,1.475546875,31,031.csv,031.csv
帶通+小波,0.6231015508185382,0.2426261135307323,0.1826699519026228,0.21699218750000004,1.2388447587948956,0.1487605368740289,-6.990909600338316e-18,1.4015984672726471,5.494265991708777,0.7038331739606221,0.14842824464411597,0.2977097324544907,0.38332371701974294,-6.658009143179349e-19,0.9999999999999999,1.7643724229425275e-17,1.0,1.475546875,31,031.csv,031.csv
帶通+小波+NLMS,0.6224568145025259,0.2581795433989828,0.14959164759700544,0.39058593750000004,1.3418345959562166,0.07307213829409949,-5.3264073145434795e-18,1.4068496652656244,5.514850687841247,0.6974566723436617,0.08485765044535058,0.25004388941043615,0.3441194040664828,1.3316018286358699e-18,1.0,1.7643724229425275e-17,1.0,1.475546875,31,031.csv,031.csv
原始波形,0.6211227984281427,0.2598743770773237,0.30539614290538136,0.30378906249999993,1.3747489937681547,0.12401869735109984,2.396883291544566e-17,1.4178032044082938,5.557788561280511,0.6961356260348674,0.17666602030712766,0.272557916676676,0.3817865210062237,-8.655411886133154e-18,1.0,4.660606400225545e-18,1.0,1.5189453124999999,32,032.csv,032.csv
帶通,0.6215397338357121,0.24706925678770505,0.33906925729066106,0.30378906249999993,1.2584276925070883,0.13445425256871765,-2.3303032001127723e-17,1.4143668616489906,5.544318097664043,0.7013131649726188,0.19350257749976751,0.28862008991958077,0.3944786107973224,-1.964112697237908e-17,1.0,4.660606400225545e-18,1.0,1.5189453124999999,32,032.csv,032.csv
小波去噪,0.6201365010933321,0.26797760747361843,0.1939986346702648,0.21699218750000004,1.2354582352055328,0.1845755998087908,-6.6580091431793495e-18,1.425979493002334,5.589839612569149,0.6925307053028187,0.15409258602793696,0.3159555885150956,0.3875262932819504,0.0,1.0,4.660606400225545e-18,1.0,1.5189453124999999,32,032.csv,032.csv
NLMS,0.6230494561630058,0.25472572982321123,0.22148551945553868,0.30378906249999993,1.2596085728862614,0.15161859949466566,-5.992208228861415e-18,1.4020217412372684,5.495925225650092,0.6990892598789267,0.13471070858220632,0.2970865625439313,0.37696217700168805,1.864242560090218e-17,1.0,4.660606400225545e-18,1.0,1.5189453124999999,32,032.csv,032.csv
帶通+小波,0.6234574673194221,0.24801041871048943,0.2292013669589959,0.30378906249999993,1.181762064205171,0.17385569597029113,1.0652814629086959e-17,1.3987113958461728,5.482948671716997,0.7019046401477418,0.13856863233393493,0.3161004091013152,0.385524560527664,1.731082377226631e-17,1.0,4.660606400225545e-18,1.0,1.5189453124999999,32,032.csv,032.csv
帶通+小波+NLMS,0.6342767415579712,0.2546381253128922,0.6342323521972595,0.30378906249999993,1.112904024442004,0.3095481272517195,3.9948054859076094e-18,1.314705192631211,5.153644355114347,0.7047368564646698,0.3410841249530667,0.39141519555424664,0.4790787256573277,1.464762011499457e-17,0.9999999999999999,4.660606400225545e-18,1.0,1.5189453124999999,32,032.csv,032.csv
原始波形,0.6233836080474922,0.2552774796630304,0.2697020109967282,0.6509765624999999,1.4807986927254226,0.2688223054443355,1.564632148647147e-17,1.399309831694213,5.4852945402413145,0.6990425561347084,0.13559541981155412,0.3359591467074018,0.3901990408845548,1.3316018286358699e-17,1.0,-1.3316018286358699e-18,0.9999999999999999,1.5189453124999999,33,033.csv,033.csv
帶通,0.624236455150506,0.24110444595875233,0.2656946374580231,0.2603906249999999,1.2714284203646218,0.26961834915437266,7.323810057497285e-18,1.3924214522609801,5.458292092863042,0.7049980039214817,0.1698393252163835,0.35493497538042595,0.40992410150609704,-2.263723108680979e-17,1.0,-1.3316018286358699e-18,0.9999999999999999,1.5189453124999999,33,033.csv,033.csv
小波去噪,0.6224494747409719,0.2589739997668664,0.24426731278548974,0.4339843750000001,1.0410818765076528,0.39409315305335574,6.658009143179349e-19,1.4069096046128646,5.51508565008243,0.6971462828120478,0.12865293905280242,0.4420147013995094,0.42260464108811985,-5.3264073145434795e-18,1.0,-1.3316018286358699e-18,0.9999999999999999,1.5189453124999999,33,033.csv,033.csv
NLMS,0.6296041847436067,0.2755727822309069,0.3441548084793908,0.0,1.1965259768143732,0.20242634445389235,-3.3290045715896748e-18,1.350123025336995,5.29248225932102,0.6943706815647643,0.6720774042396954,0.328845353807221,0.5650978132038936,2.4301733372604627e-17,0.9999999999999998,-1.3316018286358699e-18,0.9999999999999999,1.5189453124999999,33,033.csv,033.csv
帶通+小波,0.6244479612711207,0.2448549880044707,0.26726154050993955,0.2603906249999999,1.198819361203518,0.30660152049339223,-1.0985715086245927e-17,1.3907204516542209,5.451624170484545,0.7036330046449649,0.17062277674234175,0.38069551982636723,0.418317100404558,-2.1305629258173918e-17,0.9999999999999999,-1.3316018286358699e-18,0.9999999999999999,1.5189453124999999,33,033.csv,033.csv
帶通+小波+NLMS,0.6312999432439871,0.24907591339591678,0.5218333923231503,0.2603906249999999,1.1046637443514649,0.2606456433958215,-1.3316018286358699e-17,1.3371237493756287,5.241525097552464,0.7054103691558805,0.29790870264894714,0.3678904622969894,0.4570698447006057,-1.464762011499457e-17,1.0,-1.3316018286358699e-18,0.9999999999999999,1.5189453124999999,33,033.csv,033.csv
原始波形,0.6162700487828685,0.25355378861289163,0.24400365232266452,0.2603906250000001,1.5031445608877332,0.14977840997691205,6.990909600338316e-18,1.4586926061763674,5.71807501621136,0.6961540252888476,0.15899383264870415,0.27463795614435266,0.3765952713606348,-1.3316018286358699e-17,1.0,-3.728485120180436e-17,1.0,1.6057421875,34,034.csv,034.csv
帶通,0.6165065527116291,0.254961216918398,0.19807791354157978,0.2603906250000001,1.1556304008592835,0.15020574098288994,-3.9948054859076094e-18,1.4566605805464568,5.710109475742111,0.6957265524526397,0.13603096325816177,0.30705357957436036,0.37960369842838726,0.0,1.0,-3.728485120180436e-17,1.0,1.6057421875,34,034.csv,034.csv
小波去噪,0.6231544796118742,0.29627973753861747,0.24966384422540672,0.08679687499999988,1.4820730347252413,0.1908921656596208,1.1318615543404894e-17,1.4011685992685343,5.492580909132655,0.6833669357334019,0.3347336268425435,0.29689059836371723,0.4383303869798875,2.1305629258173918e-17,1.0,-3.728485120180436e-17,1.0,1.6057421875,34,034.csv,034.csv
NLMS,0.614135099193048,0.26168688925815264,0.37800318864397464,0.04339843750000005,1.3912279272659078,0.3955800096045218,-3.9948054859076094e-18,1.477225271040698,5.790723062479536,0.691943551396422,0.5129627839187041,0.40688759616892417,0.5372646438280168,0.0,1.0,-3.728485120180436e-17,1.0,1.6057421875,34,034.csv,034.csv
帶通+小波,0.6172936691460607,0.2692728231888138,0.25344438163336963,0.21699218750000004,1.1703919710622401,0.13845527888487072,1.3316018286358699e-17,1.4499273156936079,5.683715077518943,0.6906142386152503,0.18381545950948935,0.2996007732664093,0.3913434904637163,-3.9948054859076094e-18,1.0,-3.728485120180436e-17,1.0,1.6057421875,34,034.csv,034.csv
帶通+小波+NLMS,0.6355445215496351,0.2822682655471694,0.6671788523172866,0.04339843750000005,1.1576716535557376,0.20311672110143011,1.5313421029312504e-17,1.3053079397484701,5.116807123814003,0.6948079437893914,0.65755061575536,0.3332896340167331,0.5618827311871615,1.9974027429538047e-18,1.0000000000000002,-3.728485120180436e-17,1.0,1.6057421875,34,034.csv,034.csv
原始波形,0.6204810543355039,0.2951406907085809,0.2027991143043455,0.5641796875,1.422543934566264,0.39533538310807365,0.0,1.4231155832841986,5.578613086474059,0.6824539502465246,0.10317280219119741,0.40406229718562503,0.39656301654111564,3.462164754453262e-17,1.0,-3.1958443887260875e-17,1.0,1.7359375,35,035.csv,035.csv
帶通,0.6151620390362342,0.29693191863526774,0.21062497659599416,0.5641796875,1.1810104458070991,0.40545375553150836,-7.989610971815219e-18,1.4682679267196999,5.755610272741223,0.6791283202853311,0.10708573333702175,0.4319784161805421,0.406064156600965,-1.3316018286358699e-17,1.0000000000000002,-3.1958443887260875e-17,1.0,1.7359375,35,035.csv,035.csv
小波去噪,0.6201986519267746,0.3188986934783599,0.20843642930156714,0.2603906249999999,1.9135484765745212,0.3745957765052611,7.989610971815219e-18,1.4254622916354356,5.587812183210907,0.6735739210983851,0.14121022113815554,0.35890992904072594,0.3912313570924222,-1.0652814629086959e-17,1.0,-3.1958443887260875e-17,1.0,1.7359375,35,035.csv,035.csv
NLMS,0.620809033992564,0.27731426740324505,0.2993388944706863,0.0867968750000001,1.4604207141060805,0.18633088097362827,1.2650217372040764e-17,1.4203970310110583,5.567956361563349,0.6893126683575368,0.35957115196518286,0.29638271838298885,0.44842217956856945,-7.989610971815219e-18,1.0,-3.1958443887260875e-17,1.0,1.7359375,35,035.csv,035.csv
帶通+小波,0.61578963715035,0.30797239720521574,0.234807179032529,0.5641796875,1.2431647822598937,0.36947721371876857,-1.0652814629086959e-17,1.4628330264901996,5.734305463841583,0.6753626205780496,0.11917683455528917,0.40763796938248487,0.4007258081719412,-2.6632036572717397e-18,1.0,-3.1958443887260875e-17,1.0,1.7359375,35,035.csv,035.csv
帶通+小波+NLMS,0.6210413112624631,0.25976397401995954,0.33317207244667907,0.0867968750000001,1.2547909554001082,0.2179727153961226,1.3316018286358699e-17,1.418476195702167,5.5604266871524946,0.6961374533754463,0.3764877409531793,0.3307364045494227,0.4677871996260161,1.464762011499457e-17,1.0,-3.1958443887260875e-17,1.0,1.7359375,35,035.csv,035.csv
原始波形,0.6257362866214856,0.25694954066272674,0.35813163728459013,0.04339843750000005,1.5133771275810097,0.37796497690598974,8.655411886133154e-18,1.3804213481008665,5.411251684555396,0.6995717625095199,0.5030270082390118,0.3879180140902569,0.5301722616129295,-2.396883291544566e-17,1.0,3.728485120180436e-17,1.0,1.6057421875,36,036.csv,036.csv
帶通,0.6320917114415453,0.2505475377584482,0.3134213412808218,0.04339843750000005,1.2630333456631317,0.35743875584484613,-2.6632036572717397e-18,1.3311116334381714,5.217957603077632,0.7052330941989537,0.4806718602371276,0.39966176967206213,0.5285222413693812,-5.3264073145434795e-18,1.0,3.728485120180436e-17,1.0,1.6057421875,36,036.csv,036.csv
小波去噪,0.6296311968815089,0.27361543194552096,0.3053278433035845,0.2603906249999999,1.4708594799610417,0.39722679278870665,-1.3316018286358699e-17,1.3499146267933186,5.291665337029809,0.6951278639001397,0.1896559281391642,0.4009721319092858,0.4285853079828632,1.0652814629086959e-17,1.0,3.728485120180436e-17,1.0,1.6057421875,36,036.csv,036.csv
NLMS,0.6275971778648539,0.25642604516952355,0.35514457717624026,0.04339843750000005,1.3542526606708094,0.14638827628079604,-6.6580091431793495e-18,1.3657298448026873,5.353660991626534,0.7007046987298935,0.5015334781848368,0.2855757607048735,0.4959379792065346,1.464762011499457e-17,0.9999999999999998,3.728485120180436e-17,1.0,1.6057421875,36,036.csv,036.csv
帶通+小波,0.6323413959714819,0.2597259140910551,0.34123324186258197,0.04339843750000005,1.1678057573180554,0.3364553690321782,-2.6632036572717397e-18,1.32922318152243,5.2105548715679255,0.7018021725571599,0.4945778105280077,0.39887565577094225,0.5317518796187033,-1.3316018286358699e-17,1.0000000000000002,3.728485120180436e-17,1.0,1.6057421875,36,036.csv,036.csv
帶通+小波+NLMS,0.6378205556093337,0.25424438577152475,0.7114606691469333,0.04339843750000005,1.1705736778284597,0.310831774107302,-5.992208228861415e-18,1.2886555810882991,5.051529877866132,0.7066614063891401,0.6796915241701833,0.3857697354888825,0.590707555349402,2.1305629258173918e-17,1.0,3.728485120180436e-17,1.0,1.6057421875,36,036.csv,036.csv
原始波形,0.6144264655613139,0.2767394393504836,0.2548350867176292,0.30378906249999993,1.4895925297312005,0.13318852319328986,1.9308226515220113e-17,1.4746757039128255,5.780728759338276,0.6863392537895276,0.1513854922132516,0.26743033980177383,0.36838502860151773,-7.989610971815219e-18,0.9999999999999998,1.3316018286358699e-17,0.9999999999999999,1.475546875,37,037.csv,037.csv
帶通,0.6196965360848928,0.24139305885421197,0.27105331967828705,0.30378906249999993,1.3154088511154785,0.1268265718992119,7.323810057497285e-18,1.4296484245819736,5.604221824361336,0.7026146705802149,0.1594946086935805,0.27935786945550317,0.38048904957643287,-4.660606400225545e-18,1.0,1.3316018286358699e-17,0.9999999999999999,1.475546875,37,037.csv,037.csv
小波去噪,0.6174211703034896,0.2773827168571115,0.32995326926877094,0.0,1.1707381814678837,0.1131515959697189,2.1971430172491855e-17,1.4488408810202038,5.679456253599199,0.6875928013446075,0.6649766346343855,0.2869121896642526,0.5464938752144152,2.3303032001127723e-17,1.0,1.3316018286358699e-17,0.9999999999999999,1.475546875,37,037.csv,037.csv
NLMS,0.6265126991118145,0.2752588091604554,0.28411353510449455,0.13019531250000016,1.4077906239569686,0.07011426552645934,3.1958443887260875e-17,1.3742654070574907,5.387120395665363,0.6929441317749852,0.2780567794775626,0.24271638478668794,0.4045724320130786,1.3316018286358699e-17,1.0,1.3316018286358699e-17,0.9999999999999999,1.475546875,37,037.csv,037.csv
帶通+小波,0.6199615991027313,0.24506254805844474,0.18932833404116564,0.30378906249999993,1.2720197462903826,0.10449550509062534,1.997402742953805e-17,1.427436414330704,5.595550744176359,0.7013085911132182,0.1186321158750198,0.27231626243232837,0.36408565647352215,-1.6645022857948374e-18,1.0,1.3316018286358699e-17,0.9999999999999999,1.475546875,37,037.csv,037.csv
帶通+小波+NLMS,0.6272797238615155,0.26847691941673063,0.5547986509998402,0.2603906250000001,1.215517746383134,0.14479793411254813,-3.062684205862501e-17,1.368220883930561,5.363425865007799,0.6959113962838439,0.31439133198729197,0.29807984946683364,0.43612752591265647,1.3316018286358699e-17,1.0,1.3316018286358699e-17,0.9999999999999999,1.475546875,37,037.csv,037.csv
原始波形,0.6178521261839774,0.25980526679260113,0.25246793905550124,0.39058593750000004,1.445394503016336,0.263566686742899,6.6580091431793495e-18,1.4451774277604763,5.665095516821067,0.6945269379781992,0.13629579617459847,0.3362493301000783,0.3890240214176253,1.198441645772283e-17,0.9999999999999998,1.198441645772283e-17,1.0,1.38875,38,038.csv,038.csv
帶通,0.6180132733837504,0.2607853288982517,0.25175459623218227,0.39058593750000004,1.3070894250230902,0.2705250898259128,-5.992208228861415e-18,1.4438109939796673,5.659739096400296,0.6942297839012298,0.13593912476293898,0.3519858303551736,0.3940515796731141,5.3264073145434795e-18,1.0,1.198441645772283e-17,1.0,1.38875,38,038.csv,038.csv
小波去噪,0.6154374927555473,0.2763275666243427,0.2838800156973369,0.0867968750000001,1.3487632140620947,0.14005331970595727,-2.3303032001127723e-17,1.465878903219229,5.746245300619377,0.6870009512161901,0.35184171257850816,0.2829046532609516,0.44058243901854993,-7.989610971815219e-18,1.0,1.198441645772283e-17,1.0,1.38875,38,038.csv,038.csv
NLMS,0.6263028241665028,0.2883792251822127,0.21625967114680067,0.04339843750000005,1.4156916744331685,0.11849117186370095,-3.062684205862501e-17,1.375925708535833,5.393628777460465,0.6878900709172779,0.43209102517011705,0.26622564273786764,0.4620689129417543,-2.0306927886697017e-17,1.0,1.198441645772283e-17,1.0,1.38875,38,038.csv,038.csv
帶通+小波,0.618295572782789,0.26620890299913846,0.2546576605589731,0.39058593750000004,1.3130418764517515,0.2726942532869571,-1.864242560090218e-17,1.4414217517831964,5.65037326699013,0.6922873027870654,0.1373906569263344,0.3525126898744432,0.3940635498626143,-1.1318615543404894e-17,1.0,1.198441645772283e-17,1.0,1.38875,38,038.csv,038.csv
帶通+小波+NLMS,0.620571116899121,0.2789351094844191,0.6084373730381053,0.04339843750000005,1.2902761681763273,0.05068718559112084,-3.528744845885055e-17,1.422368337844786,5.575683884351561,0.6885800569856956,0.6281798761157693,0.24365787600191005,0.520139269701125,-2.2137880401071337e-17,1.0,1.198441645772283e-17,1.0,1.38875,38,038.csv,038.csv
原始波形,0.6081167909501469,0.27949145666797526,0.2022317633714485,0.5641796875,1.4029988564507627,0.15909332667652945,-1.0652814629086959e-17,1.53139605790071,6.003072546970783,0.6821424894668081,0.10288912672474891,0.2876200041381441,0.3575505401099004,-4.660606400225545e-18,1.0,1.9974027429538047e-18,0.9999999999999998,1.21515625,39,039.csv,039.csv
帶通,0.6128734554205294,0.27007215677935975,0.20187563702465766,0.5641796875,1.3262401524296479,0.17504295349510918,5.3264073145434795e-18,1.48834077076069,5.834295821381905,0.6880989343694501,0.1027110635513535,0.3024605919020126,0.3644235299409388,1.464762011499457e-17,0.9999999999999999,1.9974027429538047e-18,0.9999999999999998,1.21515625,39,039.csv,039.csv
小波去噪,0.6124953703945325,0.2703607535577649,0.2442076731202505,0.7811718749999998,1.2587968042434856,0.1639898824922121,0.0,1.4916960296730861,5.847448436318498,0.6877997612656022,0.12230631727106768,0.3033517268855561,0.37115260180740867,9.32121280045109e-18,0.9999999999999999,1.9974027429538047e-18,0.9999999999999998,1.21515625,39,039.csv,039.csv
NLMS,0.6237772108516271,0.2566818505161598,0.2233437047035675,0.17359375,1.3765755392226107,0.12248761698265621,3.9948054859076094e-18,1.3961248354749891,5.472809355061957,0.6986957552295351,0.19978930364876957,0.27163055688122045,0.3900385385865084,2.6632036572717397e-18,1.0,1.9974027429538047e-18,0.9999999999999998,1.21515625,39,039.csv,039.csv
帶通+小波,0.6152047379409696,0.2760174706619697,0.18759051769989926,0.5641796875,1.3215922560926308,0.17759563070542167,-5.3264073145434795e-18,1.467897223046326,5.754157114341598,0.6870022059269014,0.0955685038889743,0.3041672449706093,0.36224598492882837,3.728485120180436e-17,0.9999999999999999,1.9974027429538047e-18,0.9999999999999998,1.21515625,39,039.csv,039.csv
帶通+小波+NLMS,0.6252047437260546,0.26597088233692806,0.43676537472598276,0.2603906250000001,1.2630078922746482,0.07834508924878694,9.32121280045109e-18,1.384657751288231,5.427858385049865,0.6958330942341324,0.25537469385036327,0.2601174214438146,0.40377506984277006,-1.997402742953805e-17,1.0,1.9974027429538047e-18,0.9999999999999998,1.21515625,39,039.csv,039.csv
原始波形,0.6254010752634069,0.2738075402275585,0.25344488316304886,0.2603906250000001,1.3127643011781267,0.20954080715067505,-7.989610971815219e-18,1.3830908955918173,5.4217163107199235,0.6929397489725089,0.16371444806889632,0.32096191074504743,0.39253870259548423,0.0,1.0,0.0,1.0,1.56234375,40,040.csv,040.csv
帶通,0.6199248334029948,0.25244250797395,0.2528723776688217,0.2603906250000001,1.2653814324545793,0.20606107269635449,4.660606400225545e-18,1.427742940211642,5.5967523256296365,0.6984128552819213,0.16342819532178274,0.3237439194618728,0.395194990021859,-1.1651516000563861e-17,1.0,0.0,1.0,1.56234375,40,040.csv,040.csv
小波去噪,0.6231646045783283,0.25396635594459976,0.24275189651907664,0.17359375,1.2950618406756005,0.24531636953594876,-1.3316018286358699e-17,1.4010863891020493,5.4922586452800335,0.6994412522408912,0.20949339955652413,0.3405172381226388,0.41648396330668475,9.32121280045109e-18,1.0,0.0,1.0,1.56234375,40,040.csv,040.csv
NLMS,0.620868804035807,0.2628177950619166,0.2097505540884897,0.2603906250000001,1.2509986706597633,0.13578803037067622,-5.3264073145434795e-18,1.4199024052319693,5.56601742850932,0.6948753913390683,0.14186728353161673,0.2900176470280219,0.3755867739662356,1.564632148647147e-17,1.0,0.0,1.0,1.56234375,40,040.csv,040.csv
帶通+小波,0.6191569244560634,0.25414568094146794,0.23839574837917776,0.2603906250000001,1.276234983523363,0.24896280924746966,1.9308226515220113e-17,1.4341667811144339,5.621933781968581,0.6973678656106788,0.15618988067696077,0.34414238146455933,0.3992333759173996,-4.660606400225545e-18,1.0,0.0,1.0,1.56234375,40,040.csv,040.csv
帶通+小波+NLMS,0.6185500129951291,0.3133176229501161,0.18359278268745938,0.30378906249999993,1.2604987668745213,0.2047666734646812,7.989610971815219e-18,1.4392731762934983,5.641950851070513,0.6747838503457179,0.11576434019816667,0.3235734596056766,0.37137388338318705,-5.3264073145434795e-18,0.9999999999999999,0.0,1.0,1.56234375,40,040.csv,040.csv
原始波形,0.6223111280706225,0.27445650236649605,0.1814287889340399,0.04339843749999983,1.2970259697413178,0.05794746096373434,3.1958443887260875e-17,1.4080400699205455,5.519517074088538,0.6911480945761243,0.4146755840637374,0.24664649804587865,0.4508233922285801,-1.7976624686584242e-17,1.0,1.0652814629086959e-17,1.0,1.2585546875,41,041.csv,041.csv
帶通,0.6194766772603003,0.2783852587563304,0.17661906720869092,0.04339843749999983,1.312091739052466,0.05625965885602179,2.7963638401353266e-17,1.4314869154685184,5.611428708636592,0.6882408998682092,0.4122707232010629,0.24438422433576157,0.44829861580167796,5.3264073145434795e-18,1.0,1.0652814629086959e-17,1.0,1.2585546875,41,041.csv,041.csv
小波去噪,0.6232560505216669,0.2973806970181491,0.23571075751846526,0.3471875,1.4803602842069807,0.15236666017807998,2.9961041144307074e-17,1.4003441952506517,5.489349245382554,0.6830086210408404,0.13338474920538596,0.27776694807535185,0.3647201061071927,3.728485120180436e-17,1.0,1.0652814629086959e-17,1.0,1.2585546875,41,041.csv,041.csv
NLMS,0.6199906394760151,0.2675105818128594,0.2649491737071782,0.08679687499999988,1.3881603814411618,0.03639141637746974,1.8309525143743212e-17,1.4271943630491857,5.594601903152808,0.6926364359913126,0.34237629158342925,0.22756188136771938,0.4208582029808204,-3.3290045715896748e-18,1.0,1.0652814629086959e-17,1.0,1.2585546875,41,041.csv,041.csv
帶通+小波,0.619317854694862,0.2874438591671759,0.1852210386014595,0.04339843749999983,1.337710199104846,0.07934348575839299,1.7976624686584242e-17,1.432817118363508,5.616643103984951,0.6847482679697969,0.4165717088974472,0.25355625268347404,0.4516254098502394,-7.989610971815219e-18,1.0,1.0652814629086959e-17,1.0,1.2585546875,41,041.csv,041.csv
帶通+小波+NLMS,0.6178951531959336,0.30107554248426804,0.3860327272196525,0.21699218750000004,1.4899615911532107,0.14910514644618478,5.392987405975273e-17,1.4448124011731316,5.663664612598676,0.6789585103703859,0.2501096323026308,0.2753588835599631,0.4014756754109932,-1.464762011499457e-17,1.0,1.0652814629086959e-17,1.0,1.2585546875,41,041.csv,041.csv
原始波形,0.6201282786339726,0.2685744896835428,0.239400566779238,0.04339843750000005,1.3852711105047713,0.22291377937931417,-1.997402742953805e-17,1.4260479379851745,5.590107916901884,0.6922983771540161,0.44366147298633574,0.3210766674155484,0.48567883918530014,1.9308226515220113e-17,1.0,-7.989610971815219e-18,1.0,1.4321484375,42,042.csv,042.csv
帶通,0.6166610607333539,0.2575465596801354,0.24982576227530068,0.04339843750000005,1.1858022849312337,0.2232600641684447,-4.993506857384512e-17,1.4553352846182883,5.70491431570369,0.6948033490536945,0.448874070734367,0.34037899233875435,0.4946854707089386,-2.263723108680979e-17,1.0,-7.989610971815219e-18,1.0,1.4321484375,42,042.csv,042.csv
小波去噪,0.626532644330041,0.24868640780389914,0.18565808384093122,0.39058593750000004,1.408981901386685,0.2687781666718648,-3.6619050287486425e-17,1.3741077656008536,5.386502441155346,0.7031785631233056,0.10289086856731347,0.34194564476637923,0.38267169215233277,1.3316018286358699e-17,1.0,-7.989610971815219e-18,1.0,1.4321484375,42,042.csv,042.csv
NLMS,0.6169087106738909,0.2588642737262539,0.20144512181707258,0.04339843750000005,1.427293018479577,0.1409980329092511,-7.656710514656252e-18,1.453214718828909,5.6966016978093235,0.6944182487449704,0.424683750505253,0.27648980380225,0.4651972676841578,-1.8309525143743212e-17,1.0,-7.989610971815219e-18,1.0,1.4321484375,42,042.csv,042.csv
帶通+小波,0.6163222373180834,0.25384058127861964,0.19850839014827742,0.04339843750000005,1.1637904726875372,0.23076214231459313,-4.993506857384512e-17,1.4582438506568656,5.716315894574913,0.696068854508597,0.4232153846708554,0.34645704931287774,0.4885804294974434,-1.3316018286358699e-17,1.0,-7.989610971815219e-18,1.0,1.4321484375,42,042.csv,042.csv
帶通+小波+NLMS,0.6251615631863507,0.26798219555368175,0.6357230713597684,0.52078125,1.2389307514617809,0.3797721341168236,-1.1318615543404894e-17,1.3850026901952626,5.42921054556543,0.6950414815849899,0.32059835276780774,0.41320695345632913,0.4762822626030423,4.9935068573845125e-18,1.0,-7.989610971815219e-18,1.0,1.4321484375,42,042.csv,042.csv
原始波形,0.6232980125425998,0.2666181241074734,0.1476304620470641,0.04339843750000005,1.4316240868726688,0.2109456255261288,-2.1305629258173918e-17,1.400003807257718,5.488014924450254,0.6946317659656875,0.39777642062024876,0.31109670121658517,0.4678349626008405,-7.989610971815219e-18,1.0,-2.396883291544566e-17,1.0,1.21515625,43,043.csv,043.csv
帶通,0.6218287073094257,0.2541565871865752,0.13939965087877954,0.04339843750000005,1.3414976290064458,0.21658361859525704,-1.0652814629086959e-17,1.4119920787218236,5.535008948589549,0.6986995277341397,0.3936610150361065,0.3218303556561667,0.4713969661421376,1.3316018286358699e-17,1.0000000000000002,-2.396883291544566e-17,1.0,1.21515625,43,043.csv,043.csv
小波去噪,0.6307459383371725,0.2947137370604947,0.13364681180232668,0.6509765624999999,1.4403286562435103,0.17887683642773225,-1.6645022857948375e-17,1.3413520603025146,5.258100076385857,0.6877453440563217,0.06756782021435336,0.29432885324636243,0.34988067250567917,-5.3264073145434795e-18,1.0,-2.396883291544566e-17,1.0,1.21515625,43,043.csv,043.csv
NLMS,0.6218952477369268,0.2597182781919263,0.19733598350259432,0.04339843750000005,1.4236144327401747,0.059728269099215005,-1.2650217372040764e-17,1.411446047625769,5.532868506693014,0.6965820430941656,0.42262918134801386,0.23616757673314512,0.45179293372510815,-1.1318615543404894e-17,1.0,-2.396883291544566e-17,1.0,1.21515625,43,043.csv,043.csv
帶通+小波,0.622701510559887,0.26773756124907666,0.18583272464445522,0.04339843750000005,1.3872777420625462,0.21172658988025078,-2.6632036572717398e-17,1.4048534357795819,5.507025468255961,0.6939050297244331,0.4168775519189443,0.31530687630071436,0.4753631526480306,-2.6632036572717397e-18,1.0,-2.396883291544566e-17,1.0,1.21515625,43,043.csv,043.csv
帶通+小波+NLMS,0.6271346288510287,0.27402000701591234,0.5900276691851131,0.04339843750000005,1.3860081698467708,0.3512956057808627,-2.6632036572717397e-18,1.3693615037475704,5.367897094690476,0.6937257461440772,0.6189750241892733,0.3852028271853021,0.5659678658395508,-7.323810057497285e-18,1.0,-2.396883291544566e-17,1.0,1.21515625,43,043.csv,043.csv
原始波形,0.61636970714755,0.2774030279184178,0.2918034928637612,0.52078125,1.2314938286070471,0.05736450513368304,-3.462164754453262e-17,1.4578358448684898,5.71471651188448,0.6870593743448681,0.14863856351980415,0.2527474028218669,0.3628151135621797,3.9948054859076094e-18,1.0,3.528744845885055e-17,0.9999999999999999,1.4321484375,44,044.csv,044.csv
帶通,0.6185771318353983,0.27282988783951434,0.2746929163334345,0.04339843750000005,1.3110499665080009,0.05957600471930079,6.6580091431793495e-18,1.439044448027008,5.641054236265871,0.6898997008078491,0.46130764776343397,0.24613988018404057,0.4657824095851079,2.5300434744081527e-17,1.0,3.528744845885055e-17,0.9999999999999999,1.4321484375,44,044.csv,044.csv
小波去噪,0.6168977448559835,0.27377135599516805,0.3282882575785523,0.4773828124999999,1.3078436827653048,0.11447277196465967,-1.5979221943630438e-17,1.453308521353656,5.696969403706332,0.6887018426817105,0.16836811792101514,0.2738888411438033,0.37698626724884293,-5.3264073145434795e-18,0.9999999999999998,3.528744845885055e-17,0.9999999999999999,1.4321484375,44,044.csv,044.csv
NLMS,0.6187196497632372,0.28829907935487015,0.23317101303343385,0.2603906250000001,1.2122734689237165,0.2626482107989546,5.992208228861415e-18,1.4378432691149763,5.636345614930707,0.6841285186590663,0.1535775130040888,0.35733594662236773,0.39834732609517426,-9.987013714769024e-19,1.0,3.528744845885055e-17,0.9999999999999999,1.4321484375,44,044.csv,044.csv
帶通+小波,0.6188593785631248,0.27839110136351397,0.32710424689322753,0.04339843750000005,1.2986259107115217,0.05873526260536943,-2.6632036572717398e-17,1.4366669968069123,5.631734627483096,0.6879300390842985,0.48751331304333045,0.24688888940302037,0.47411074717688306,-1.0652814629086959e-17,1.0,3.528744845885055e-17,0.9999999999999999,1.4321484375,44,044.csv,044.csv
帶通+小波+NLMS,0.6138310025629693,0.2795010054015438,0.6142163214109285,0.04339843750000005,1.3157783257001712,0.205730598208146,-1.997402742953805e-17,1.4798931835777815,5.801181279624903,0.6849959850661758,0.6310693503021809,0.3187754293834148,0.5449469215839239,-2.396883291544566e-17,1.0,3.528744845885055e-17,0.9999999999999999,1.4321484375,44,044.csv,044.csv
原始波形,0.6164796368440999,0.25854232672987454,0.25306595449706837,0.3471875,1.5437922026255817,0.3056973739780985,-7.989610971815219e-18,1.4568916317319394,5.711015196389202,0.6943279917509687,0.1420623476946875,0.3494056225295874,0.3952653206584145,1.864242560090218e-17,1.0,-1.864242560090218e-17,1.0,1.6491406249999998,45,045.csv,045.csv
帶通,0.6157114216367843,0.2576227164714105,0.2060460848622408,0.30378906249999993,1.366560419290485,0.30707194007057365,-2.6632036572717397e-18,1.4635087514043887,5.736954305505204,0.6942990980963384,0.12699099128555738,0.3648130605859284,0.39536771665594134,1.198441645772283e-17,0.9999999999999999,-1.864242560090218e-17,1.0,1.6491406249999998,45,045.csv,045.csv
小波去噪,0.6165037893757015,0.2672805109437625,0.37122965285969844,0.3471875,1.5989621804240186,0.42040289503421996,7.323810057497285e-18,1.4566842991153661,5.7102024525322355,0.6909810556431968,0.20114419687600255,0.4025859322803417,0.43157039493318033,0.0,1.0,-1.864242560090218e-17,1.0,1.6491406249999998,45,045.csv,045.csv
NLMS,0.6253529470968147,0.2634453389907348,0.1567177673701362,0.04339843750000005,1.4681756425784904,0.23613776583172705,2.629913611555843e-17,1.3834747631503925,5.423221071549539,0.6968762849435213,0.4023200732817848,0.32064765866200634,0.4732813389624375,2.496753428692256e-17,0.9999999999999998,-1.864242560090218e-17,1.0,1.6491406249999998,45,045.csv,045.csv
帶通+小波,0.6157837570379697,0.25877663065886497,0.19680145763447077,0.3471875,1.3937397189193639,0.3191408544172838,1.5979221943630438e-17,1.4628838104967303,5.734504537147183,0.6938896004689266,0.11393009926338872,0.36844860892913456,0.39208943622048326,3.9948054859076094e-18,1.0,-1.864242560090218e-17,1.0,1.6491406249999998,45,045.csv,045.csv
帶通+小波+NLMS,0.6292194265743759,0.2637070262477817,0.5017827429910124,0.3471875,1.4067020427162116,0.23774905928718942,-7.989610971815219e-18,1.353096157893909,5.304136938944123,0.6987089976413965,0.26642074194165954,0.3266277085272169,0.43058581603675766,-2.4634633829763593e-17,0.9999999999999998,-1.864242560090218e-17,1.0,1.6491406249999998,45,045.csv,045.csv
原始波形,0.6243292063363377,0.26880693971747927,0.23765911915868299,0.13019531250000016,1.5754927659287585,0.14072544592167685,2.4634633829763593e-17,1.391675161002713,5.455366631130635,0.6943100009694764,0.2548295715046568,0.26450032901996207,0.4045466338313651,-6.6580091431793495e-18,1.0,-7.989610971815219e-18,1.0,1.4321484375,46,046.csv,046.csv
帶通,0.6278934770638191,0.250032028556086,0.23244531886026923,0.13019531250000016,1.4469753797442808,0.1440782083211055,0.0,1.3634103914208375,5.344568734369683,0.7033346583350586,0.2522226713554499,0.2763729949462672,0.4106434415455919,-6.990909600338316e-18,1.0,-7.989610971815219e-18,1.0,1.4321484375,46,046.csv,046.csv
小波去噪,0.630207363179293,0.2751394641182444,0.23337315820694615,0.39058593750000004,1.649237486650582,0.23322579986845116,9.987013714769025e-18,1.3454798174104219,5.274280884248854,0.6948367803672199,0.12674840575032092,0.30534645157672013,0.3756438792314203,1.0652814629086959e-17,1.0,-7.989610971815219e-18,1.0,1.4321484375,46,046.csv,046.csv
NLMS,0.6300221475495223,0.276104099396426,0.176471905056292,0.21699218749999982,1.4861808646016887,0.19614854834112996,-1.0652814629086959e-17,1.346903296711652,5.279860923109676,0.6943780452270183,0.14532922122095068,0.2991859499617408,0.37963107213656994,-7.323810057497285e-18,1.0,-7.989610971815219e-18,1.0,1.4321484375,46,046.csv,046.csv
帶通+小波,0.6287088534344926,0.25011849142920367,0.3061655040763547,0.13019531250000016,1.50380462734658,0.12848169623725114,1.731082377226631e-17,1.3570551949313223,5.3196563641307835,0.7037086803775485,0.28908276396349264,0.2639369404330957,0.41890946159137893,-2.263723108680979e-17,0.9999999999999998,-7.989610971815219e-18,1.0,1.4321484375,46,046.csv,046.csv
帶通+小波+NLMS,0.6345627437623553,0.2851007170728749,0.20890992780560863,0.21699218749999982,1.530081361411061,0.31647886374345435,4.660606400225545e-18,1.3125775117815144,5.145303846183536,0.693250630610672,0.161548232595609,0.35586153510762597,0.40355346610463566,7.490260286076768e-18,1.0,-7.989610971815219e-18,1.0,1.4321484375,46,046.csv,046.csv
原始波形,0.6239440133582024,0.2709886491522705,0.2712507973594293,0.21699218749999982,1.4612835811775948,0.1870749712776122,3.3290045715896748e-18,1.3947781399520953,5.467530308612213,0.6932845830780615,0.19271866737251933,0.29668352042475965,0.39422892362511347,7.989610971815219e-18,1.0,0.0,0.9999999999999999,1.3019531249999998,47,047.csv,047.csv
帶通,0.6266143802138937,0.25677056858405384,0.26110942914955537,0.21699218749999982,1.3259349842587254,0.19045046185417006,-1.3981819200676633e-17,1.37346200737525,5.38397106891098,0.7000800246499046,0.18764798326758236,0.3101925466017963,0.39930685150642775,-1.5979221943630438e-17,1.0,0.0,0.9999999999999999,1.3019531249999998,47,047.csv,047.csv
小波去噪,0.6249456777838827,0.2803573852375287,0.28268960315539643,0.694375,1.4529528282785775,0.07504059253341576,-1.864242560090218e-17,1.3867290333050977,5.435977810555983,0.6902296807739191,0.14182712427060593,0.24135625847348535,0.35780435450600345,-1.5979221943630438e-17,0.9999999999999999,0.0,0.9999999999999999,1.3019531249999998,47,047.csv,047.csv
NLMS,0.6191545291000479,0.2766063264968226,0.19194330908054574,0.21699218749999982,1.4929798413210276,0.11553591934100274,1.1318615543404894e-17,1.434186883849572,5.622012584690322,0.6887537554644703,0.15306492323307755,0.2583311538498215,0.3667166108491231,1.5979221943630438e-17,1.0,0.0,0.9999999999999999,1.3019531249999998,47,047.csv,047.csv
帶通+小波,0.6255800304800767,0.2572981524331887,0.2923284291615042,0.21699218749999982,1.3118509971013812,0.19079078021521448,1.5313421029312504e-17,1.3816648500218394,5.416126212085611,0.6993588485008297,0.20325748327355678,0.3116723044186525,0.40476287873101296,7.989610971815219e-18,1.0,0.0,0.9999999999999999,1.3019531249999998,47,047.csv,047.csv
帶通+小波+NLMS,0.628441911903893,0.26453387664919736,0.584303830870609,0.13019531249999994,1.3158378789753105,0.29667716252769283,3.9948054859076094e-18,1.3591313437316852,5.327794867428206,0.6980027789233261,0.42815192736062013,0.3642431592739596,0.49679928851930194,1.198441645772283e-17,0.9999999999999999,0.0,0.9999999999999999,1.3019531249999998,47,047.csv,047.csv
原始波形,0.6252165146301446,0.2692697078973237,0.2593312495821773,0.6509765624999999,1.5013861351827502,0.3225187630284734,1.198441645772283e-17,1.3845637424634534,5.427489870456737,0.6945768512989491,0.13041003910427867,0.36114855214940944,0.3953784808508791,-1.464762011499457e-17,1.0,-7.989610971815219e-18,1.0,1.3453515624999999,48,048.csv,048.csv
帶通,0.6308899059446437,0.24759010884517724,0.26291532706574205,0.13019531249999994,1.2807088988859272,0.3208939790191606,1.3316018286358699e-17,1.3402515412020315,5.2537860415119635,0.7057848887121982,0.26745767545818666,0.3796770719827264,0.4509732120510371,-6.6580091431793495e-18,1.0,-7.989610971815219e-18,1.0,1.3453515624999999,48,048.csv,048.csv
小波去噪,0.6185693540085709,0.25870097591811575,0.30098822390791924,0.52078125,1.2376524252601688,0.2497520866735916,5.3264073145434795e-18,1.439110043153181,5.641311369160469,0.6953116026164948,0.15323092904188315,0.34832450850308083,0.3989556800538196,3.9948054859076094e-18,1.0,-7.989610971815219e-18,1.0,1.3453515624999999,48,048.csv,048.csv
NLMS,0.6318698470376429,0.26726244456881326,0.3433229298397636,0.13019531250000016,1.3126838650171042,0.14831817838029066,1.4980520572153537e-18,1.3327926695513654,5.224547264641353,0.6986709990651538,0.30766147684519707,0.2903581155954695,0.43223019716860683,2.1971430172491855e-17,1.0,-7.989610971815219e-18,1.0,1.3453515624999999,48,048.csv,048.csv
帶通+小波,0.6309295485809546,0.24856276354277587,0.23234834584325303,0.13019531249999994,1.2500274289344755,0.3274624120134477,2.6632036572717398e-17,1.3399487169777151,5.2525989705526435,0.7054252286402918,0.2521741848469421,0.385950719231405,0.4478500442395463,-2.6632036572717397e-18,1.0,-7.989610971815219e-18,1.0,1.3453515624999999,48,048.csv,048.csv
帶通+小波+NLMS,0.6375008519739415,0.2728852127988022,0.5997860780089556,0.13019531250000016,1.226177280351837,0.48488222852894963,-1.3316018286358699e-18,1.2909779851606424,5.060633701829718,0.6993405041640646,0.4358930509297931,0.4670413760733535,0.5340916437224038,2.9961041144307074e-17,1.0,-7.989610971815219e-18,1.0,1.3453515624999999,48,048.csv,048.csv
原始波形,0.6171717187316614,0.25662513949804006,0.2862254472213602,0.30378906249999993,1.6266399953443296,0.08846571483715845,-2.1971430172491855e-17,1.450967558149008,5.6877928279441115,0.6954149460188583,0.16708067246511707,0.2345901202662632,0.36569524625007954,-4.660606400225545e-18,1.0,-1.5979221943630438e-17,1.0,1.38875,49,049.csv,049.csv
帶通,0.6232562230461789,0.2444849603755448,0.28196250869358774,0.30378906249999993,1.4412059655040146,0.09028629975336036,3.6619050287486425e-18,1.4003427955271444,5.489343758466406,0.703181994484843,0.16494920320123085,0.24995995233634866,0.37269705000747416,1.8975326058061146e-17,1.0,-1.5979221943630438e-17,1.0,1.38875,49,049.csv,049.csv
小波去噪,0.6126836335124566,0.2698544997362189,0.2624920639250006,0.21699218750000004,1.3849586105157876,0.017450943788321186,1.3981819200676633e-17,1.4900239096394883,5.840893725786794,0.6880871039239947,0.18833930065530485,0.2183727159995275,0.3649330401929423,-1.3316018286358699e-17,1.0,-1.5979221943630438e-17,1.0,1.38875,49,049.csv,049.csv
NLMS,0.6230687517819755,0.2590952988898691,0.28871702987756775,0.04339843750000005,1.4987247979509077,0.13141514144207672,1.464762011499457e-17,1.401864941631336,5.495310571194837,0.6974091122265489,0.4683197045355006,0.2658096389480106,0.4771794852366867,3.9948054859076094e-18,1.0,-1.5979221943630438e-17,1.0,1.38875,49,049.csv,049.csv
帶通+小波,0.6226423485332787,0.244402463431319,0.30279053046225207,0.30378906249999993,1.434103440992924,0.09360781044145282,4.4941561716460606e-18,1.4053357142272564,5.508915999770845,0.7029073605596816,0.17536321408556302,0.25221834717888697,0.37682964060804386,1.2650217372040764e-17,0.9999999999999999,-1.5979221943630438e-17,1.0,1.38875,49,049.csv,049.csv
帶通+小波+NLMS,0.6226789379099252,0.2522141214098336,0.6293501154544194,0.04339843750000005,1.5038242642600506,0.06625866971165748,-1.731082377226631e-17,1.4050374166155952,5.507746673133133,0.6998786345280243,0.6386362473239264,0.2328238610001242,0.5237795809506917,-4.0280955316235064e-17,0.9999999999999999,-1.5979221943630438e-17,1.0,1.38875,49,049.csv,049.csv
原始波形,0.6140940707360081,0.2590265425072202,0.2638399195104319,0.3471875,1.5215135178581325,0.35903127495706094,2.097272880101495e-17,1.477584808408289,5.792132448960492,0.6929483039667119,0.14744933020136927,0.37780924029241447,0.4060689581534986,-2.6632036572717398e-17,1.0,-1.0652814629086959e-17,0.9999999999999999,1.3453515624999999,50,050.csv,050.csv
帶通,0.6066303930491409,0.23722992928589634,0.24836644477635444,0.3471875,1.2421333656358153,0.34849269762836177,-3.9948054859076094e-18,1.5452395142961033,6.057338896040725,0.6977201448588546,0.13971259283433055,0.3972482485509577,0.4115603287480476,1.0652814629086959e-17,1.0,-1.0652814629086959e-17,0.9999999999999999,1.3453515624999999,50,050.csv,050.csv
小波去噪,0.623713492131347,0.27082679614549143,0.31958876139391224,0.21699218750000004,1.2604176418649093,0.12335901672600233,-1.997402742953805e-17,1.3966397535783361,5.474827834027078,0.6932310440464238,0.21688764938976068,0.2828775696148527,0.39766542101701235,5.3264073145434795e-18,1.0,-1.0652814629086959e-17,0.9999999999999999,1.3453515624999999,50,050.csv,050.csv
NLMS,0.633042720844305,0.25017907447379506,0.2784068003113077,0.04339843750000005,1.3151142723428992,0.19760384774785905,-9.32121280045109e-18,1.3239378124214416,5.189836224692051,0.7058520265308534,0.46316458975237057,0.3147739845074633,0.49459686693022914,-3.6619050287486425e-18,1.0,-1.0652814629086959e-17,0.9999999999999999,1.3453515624999999,50,050.csv,050.csv
帶通+小波,0.6067467864421485,0.24190351279236244,0.3203040817752382,0.2603906249999999,1.2560265481576742,0.3385046110028858,-1.5979221943630438e-17,1.544148550353011,6.053062317383803,0.6959393577634284,0.19714404737499108,0.39088090309410517,0.4279881027441749,1.997402742953805e-17,1.0,-1.0652814629086959e-17,0.9999999999999999,1.3453515624999999,50,050.csv,050.csv
帶通+小波+NLMS,0.6384288038969855,0.24063160959418423,0.6201266399141622,0.04339843750000005,1.2063305377083524,0.326730316586541,6.6580091431793495e-18,1.28425195624976,5.0342676684990595,0.7122799900657006,0.6340245095537977,0.3899857808403049,0.5787634268199344,-1.6645022857948374e-18,1.0,-1.0652814629086959e-17,0.9999999999999999,1.3453515624999999,50,050.csv,050.csv
原始波形,0.6142089650602081,0.27667298083823594,0.30645464362607916,0.0,1.4449341989569393,0.23999316121586925,-9.987013714769024e-19,1.4765783011273068,5.788186940419043,0.6862557005275532,0.6532273218130396,0.32450106183827226,0.5546613613929551,5.3264073145434795e-18,0.9999999999999999,-2.6632036572717397e-18,1.0,1.3453515624999999,51,051.csv,051.csv
帶通,0.6148562147755872,0.25510013458607683,0.299673205247366,0.0,1.3261736445799281,0.23583225325571122,1.997402742953805e-17,1.4709270586432364,5.766034069881487,0.6948475603393949,0.649836602623683,0.332861387126795,0.5591818500299577,1.7976624686584242e-17,1.0000000000000002,-2.6632036572717397e-18,1.0,1.3453515624999999,51,051.csv,051.csv
小波去噪,0.6198851110988216,0.28790052830345186,0.2083445064512336,0.04339843750000005,1.2768114822194234,0.15648103737515845,7.656710514656252e-18,1.4280742217572748,5.598050949288517,0.6848606435524375,0.4281334428223335,0.29784587640151816,0.4702799875920964,-5.3264073145434795e-18,1.0,-2.6632036572717397e-18,1.0,1.3453515624999999,51,051.csv,051.csv
NLMS,0.6235381937248083,0.26000352131143106,0.22312226588454795,0.04339843750000005,1.4023014425777456,0.08030421742163502,1.6645022857948374e-18,1.3980577292358414,5.480386298604498,0.697293532210196,0.4355223225389907,0.24828585543307904,0.4603672367274219,1.198441645772283e-17,0.9999999999999999,-2.6632036572717397e-18,1.0,1.3453515624999999,51,051.csv,051.csv
帶通+小波,0.6145295958002148,0.26806228788611647,0.14316032059116665,0.0,1.3366601137398018,0.21489511079627535,1.3981819200676633e-17,1.47377483022324,5.777197334475101,0.6896948669490632,0.5715801602955833,0.3214281840141476,0.5275677370862647,1.5979221943630438e-17,1.0,-2.6632036572717397e-18,1.0,1.3453515624999999,51,051.csv,051.csv
帶通+小波+NLMS,0.623623103830245,0.255322478667787,0.6145442408747993,0.04339843750000005,1.3738610652012044,0.3276601655446845,-1.5313421029312504e-17,1.3973706466738312,5.477692934961418,0.6991448740199175,0.6312333100341163,0.37445740520901605,0.56827852975435,7.323810057497285e-18,1.0,-2.6632036572717397e-18,1.0,1.3453515624999999,51,051.csv,051.csv
原始波形,0.623415129630121,0.26451218737929955,0.2944733994286723,0.04339843750000005,1.524842099747182,0.22734950163207823,1.8143074915163727e-17,1.3990543880635296,5.484293201209036,0.6954977118242511,0.4711978893110529,0.3117069366901839,0.4928008459418293,1.997402742953805e-17,1.0,-2.396883291544566e-17,1.0,1.21515625,52,052.csv,052.csv
帶通,0.6309077429831277,0.24593703784780488,0.28066239396379733,0.04339843750000005,1.4131407651520724,0.2352618455671358,1.0652814629086959e-17,1.3401152753601902,5.253251879411946,0.7064396004823144,0.4642923865786154,0.32482977633593857,0.4985205877989561,3.6619050287486425e-18,1.0,-2.396883291544566e-17,1.0,1.21515625,52,052.csv,052.csv
小波去噪,0.6171065271479736,0.28384014928058665,0.17638800975744806,0.694375,1.7122952978738077,0.06860285709280614,3.528744845885055e-17,1.4515240894233963,5.6899744305397135,0.6849967558809154,0.08867632757163176,0.2186471376555677,0.33077340703603825,-2.1305629258173918e-17,1.0,-2.396883291544566e-17,1.0,1.21515625,52,052.csv,052.csv
NLMS,0.6214147661530751,0.26461668751782585,0.2902666980917926,0.0,1.6999581596599525,0.2963141608626517,1.0319914171927992e-17,1.4153955949604855,5.548350732245103,0.6944574260576755,0.6451333490458964,0.33334513536880417,0.557645303490792,-1.864242560090218e-17,1.0,-2.396883291544566e-17,1.0,1.21515625,52,052.csv,052.csv
帶通+小波,0.6323793600462169,0.2446404745049566,0.24827796487784157,0.04339843750000005,1.505654779861329,0.23687763710637683,-2.6632036572717397e-18,1.3289363579611322,5.209430523207638,0.7076826755581855,0.4481001720356375,0.317987457104135,0.4912567682326527,-9.32121280045109e-18,1.0,-2.396883291544566e-17,1.0,1.21515625,52,052.csv,052.csv
帶通+小波+NLMS,0.6247047572291393,0.2620708212775617,0.5877918312671337,0.0,1.5858557941277558,0.34733983499694937,2.496753428692256e-17,1.3886590970722157,5.443543660523085,0.6970806425563365,0.7938959156335669,0.36702950125231537,0.6193353531474063,-1.3316018286358699e-18,1.0,-2.396883291544566e-17,1.0,1.21515625,52,052.csv,052.csv
原始波形,0.6103937063536724,0.28199731015796864,0.24724393254553423,0.694375,1.46898211662386,0.05499652064921049,-1.2650217372040764e-17,1.5105549738702062,5.9213754975712085,0.6823347098832749,0.12410428896567484,0.2300108652695576,0.34548328803950246,-9.987013714769025e-18,0.9999999999999999,-1.0652814629086959e-17,1.0,1.2585546875,53,053.csv,053.csv
帶通,0.611481376023087,0.2697138481347713,0.25090342829169215,0.13019531249999994,1.4645416413691559,0.0573443353063299,-8.655411886133154e-18,1.5007505526563556,5.882942166412914,0.6875396720414815,0.2614517260711617,0.23154964864481464,0.3935136822524859,3.3290045715896747e-19,1.0000000000000002,-1.0652814629086959e-17,1.0,1.2585546875,53,053.csv,053.csv
小波去噪,0.6077274525759712,0.26728745501193396,0.26186783044558287,0.694375,1.3119035435393078,0.21272347315719198,-2.496753428692256e-17,1.535003648171135,6.017214300830849,0.6865902295551742,0.13141623791569915,0.32263373520815253,0.38021340089300865,2.0639828343855984e-17,0.9999999999999999,-1.0652814629086959e-17,1.0,1.2585546875,53,053.csv,053.csv
NLMS,0.6180091809680097,0.2812009627608339,0.28704923466141,0.13019531249999994,1.4551853425461292,0.29445144855805666,-1.6645022857948375e-17,1.4438456721695232,5.659875034904531,0.6864428995573448,0.2795246292560206,0.3508763372634962,0.4389479553589539,6.158658457440898e-18,0.9999999999999999,-1.0652814629086959e-17,1.0,1.2585546875,53,053.csv,053.csv
帶通+小波,0.6110524197127194,0.2718476874007377,0.1589680642283573,0.13019531249999994,1.3771109916230808,0.06402940675762175,1.9974027429538047e-18,1.5046057589204966,5.898054574968347,0.6865113648214742,0.21548404403949425,0.24235406143234556,0.38144982343110473,9.32121280045109e-18,1.0,-1.0652814629086959e-17,1.0,1.2585546875,53,053.csv,053.csv
帶通+小波+NLMS,0.6262780031622579,0.278077329604922,0.4333932643288715,0.3905859374999998,1.3075622928362505,0.34424245802211445,-2.496753428692256e-19,1.376122247636503,5.3943992107350915,0.691758132738393,0.22675845881128362,0.3888001033158737,0.43577223162185014,1.3981819200676633e-17,1.0,-1.0652814629086959e-17,1.0,1.2585546875,53,053.csv,053.csv
原始波形,0.6086394991361632,0.26511748370498944,0.3671441084432748,0.21699218750000004,1.4371855103276134,0.41587027538149557,-2.396883291544566e-17,1.5265730449302093,5.98416633612642,0.687877660104484,0.24066532291444193,0.41308981216310203,0.44721093172734266,-1.6645022857948374e-18,1.0,-1.0652814629086959e-17,1.0,1.21515625,54,054.csv,054.csv
帶通,0.6073398813198313,0.2402647243643885,0.3659494401793175,0.21699218750000004,1.3927356072227475,0.4180758335926482,-1.4980520572153537e-18,1.5386078373213037,6.03134272229951,0.6968797651932321,0.24006798878246333,0.41800375426315184,0.45165050274628243,2.1472079486753403e-17,1.0,-1.0652814629086959e-17,1.0,1.21515625,54,054.csv,054.csv
小波去噪,0.6144848061210755,0.27954284551046255,0.3863862577847915,0.21699218750000004,1.4719061666185047,0.18078418293738022,-6.990909600338316e-18,1.4741659818655355,5.778730648912899,0.6853070682475355,0.2502863975852003,0.2926651416160529,0.4094195358162629,-6.658009143179349e-19,1.0,-1.0652814629086959e-17,1.0,1.21515625,54,054.csv,054.csv
NLMS,0.6257162333406755,0.2515732326001865,0.30454234944638425,0.0,1.5212245510070408,0.4499751052127307,5.3264073145434795e-18,1.3805808476426145,5.411876922759048,0.7016463724577644,0.6522711747231922,0.4233038825819272,0.5924071432542947,5.3264073145434795e-18,1.0000000000000002,-1.0652814629086959e-17,1.0,1.21515625,54,054.csv,054.csv
帶通+小波,0.6070218903099182,0.2470973700367295,0.3572268153379631,0.21699218750000004,1.368975927634339,0.43340364578722257,-1.1485065771984378e-17,1.5415747025487145,6.0429728339909605,0.6940432639230611,0.2357066763617861,0.4277634863607029,0.45250447554851675,-5.992208228861415e-18,1.0,-1.0652814629086959e-17,1.0,1.21515625,54,054.csv,054.csv
帶通+小波+NLMS,0.6351137394116619,0.24470180226265092,0.6066836037744864,0.04339843750000005,1.3465464005623866,0.49900336410661933,-7.989610971815219e-18,1.3084911605391376,5.129285349313419,0.7090258565895449,0.6273029914839598,0.4625807841244075,0.5996365440659708,-6.6580091431793495e-18,1.0,-1.0652814629086959e-17,1.0,1.21515625,54,054.csv,054.csv
原始波形,0.6240033324160837,0.25444885619027297,0.37189518122566667,0.39058593750000004,1.5591420280808141,0.12711486413721731,-2.0639828343855984e-17,1.3942996588550072,5.465654662711628,0.69967351926191,0.19600941725968118,0.25893541207660636,0.38487278286606585,7.823160743235735e-18,1.0,1.198441645772283e-17,1.0,1.1717578124999999,55,055.csv,055.csv
帶通,0.6254626618652533,0.23829322410189113,0.3640717743795594,0.39058593750000004,1.4582490205120384,0.11363647591038335,3.3290045715896747e-19,1.3825998991346278,5.419791604607741,0.7067171334072444,0.19209771383662755,0.2602150443112268,0.3863432971850329,-2.5300434744081527e-17,0.9999999999999999,1.198441645772283e-17,1.0,1.1717578124999999,55,055.csv,055.csv
小波去噪,0.6242544978372491,0.28513551300817436,0.26277841578977906,0.52078125,1.7861044117447096,0.2157433588392832,1.9974027429538047e-18,1.3922762342032777,5.457722838076848,0.6880834256737187,0.13412602498281306,0.2873337261011193,0.3698477255858837,-5.3264073145434795e-18,1.0,1.198441645772283e-17,1.0,1.1717578124999999,55,055.csv,055.csv
NLMS,0.627633579998329,0.2572103040025309,0.3470351668254579,0.52078125,1.6286516782542462,0.16073664084770717,-7.989610971815219e-18,1.3654445960025294,5.352542816329915,0.7004195842169857,0.17625440050065247,0.27057990461216364,0.382417963109934,-2.04733781152765e-17,1.0,1.198441645772283e-17,1.0,1.1717578124999999,55,055.csv,055.csv
帶通+小波,0.6249986452010033,0.25457222775559885,0.3215740942876665,0.39058593750000004,1.5287997894407999,0.11595215567010818,-1.0319914171927992e-17,1.3863051995706,5.4343163823167515,0.7001233509211925,0.1708488737906811,0.25569833409582604,0.3755568529358999,-2.7297837487035332e-17,1.0,1.198441645772283e-17,1.0,1.1717578124999999,55,055.csv,055.csv
帶通+小波+NLMS,0.6281041228517266,0.2659122370122685,0.5628140758886201,0.13019531249999994,1.5777916154303462,0.0691130685416442,5.659307771702447e-18,1.3617647054025497,5.338117645177995,0.697305259146132,0.4174070498696256,0.22852101030025013,0.44774443977200257,1.547987125789199e-17,1.0,1.198441645772283e-17,1.0,1.1717578124999999,55,055.csv,055.csv
原始波形,0.6291468634351804,0.25822131573394386,0.19600156130165486,0.8245703124999999,1.515146321971726,0.1273610242458909,-3.2624244801578815e-17,1.3536578653914364,5.306338832334431,0.7007855634904937,0.09813197243480203,0.26247610331066984,0.35379787974532184,2.2304330629650822e-17,1.0,1.3316018286358699e-17,1.0,1.1717578124999999,56,056.csv,056.csv
帶通,0.627205018981521,0.24958523319911533,0.19997060121311014,0.21699218750000004,1.45330285095452,0.12247573280706592,-2.6632036572717397e-18,1.3688079908926973,5.365727324299374,0.7031644448803214,0.15707856929935962,0.26504474650619225,0.37509592022862437,2.6632036572717397e-18,1.0,1.3316018286358699e-17,1.0,1.1717578124999999,56,056.csv,056.csv
小波去噪,0.6247895745880382,0.26206525026715793,0.20900966842395963,0.7811718750000001,1.2100122225775192,0.21580375094526666,-2.7963638401353266e-17,1.3879791829310923,5.4408783970898815,0.6971251945669172,0.10470731492292225,0.334144968108951,0.37865915919959686,5.992208228861415e-18,1.0,1.3316018286358699e-17,1.0,1.1717578124999999,56,056.csv,056.csv
NLMS,0.6143252621280944,0.2729807733694767,0.26607691290431507,0.08679687499999988,1.34073655731251,0.23625858598828503,-1.997402742953805e-17,1.4755605360480375,5.784197301308307,0.6877163415737626,0.34294016118199766,0.3317372696961723,0.4541312574839775,1.198441645772283e-17,1.0,1.3316018286358699e-17,1.0,1.1717578124999999,56,056.csv,056.csv
帶通+小波,0.6263812837017201,0.2459465816242151,0.2439464834599646,0.21699218750000004,1.3687748991275275,0.15448723351670796,-1.3981819200676633e-17,1.3753046996532352,5.391194422640682,0.7041726393790397,0.17906651042278687,0.2883231921895869,0.3905207806638045,3.9948054859076094e-18,1.0,1.3316018286358699e-17,1.0,1.1717578124999999,56,056.csv,056.csv
帶通+小波+NLMS,0.6141367062334397,0.2805847693093696,0.3792591215533305,0.04339843750000005,1.3300395229190618,0.17833147834585264,-2.0639828343855984e-17,1.4772111909804049,5.790667868643187,0.6847393088747631,0.513590750373382,0.30375437386423937,0.5006948110374615,-1.0652814629086959e-17,0.9999999999999999,1.3316018286358699e-17,1.0,1.1717578124999999,56,056.csv,056.csv
原始波形,0.6214948263853581,0.259945971662303,0.3382919345363052,0.30378906249999993,1.417457070320942,0.16608022360426128,1.0985715086245927e-17,1.4147364177386608,5.54576675753555,0.6962940359748888,0.19311391612258957,0.2898690173237579,0.39309232314041215,-3.4288747087373653e-17,1.0,1.3316018286358699e-17,1.0,1.56234375,57,057.csv,057.csv
帶通,0.6232399406035831,0.24651229167656016,0.31189263066000295,0.30378906249999993,1.148818035368261,0.17134830419691574,-5.3264073145434795e-18,1.400474906651134,5.489861634072445,0.7023808479344544,0.17991426418443845,0.31836021102494616,0.40021844104794635,3.1958443887260875e-17,1.0,1.3316018286358699e-17,1.0,1.56234375,57,057.csv,057.csv
小波去噪,0.6200447794110446,0.2877894923746327,0.31617813964424263,0.3471875,1.3866873656445005,0.11245054099176822,2.5633335201240497e-17,1.4267432634889732,5.592833592876775,0.6849821093979453,0.17361844026827464,0.26572066029738,0.37477373665453334,1.3316018286358699e-17,1.0,1.3316018286358699e-17,1.0,1.56234375,57,057.csv,057.csv
NLMS,0.6199258071084474,0.24719015029772165,0.29457492606285574,0.08679687499999988,1.2850983491383043,0.3011202508547004,3.062684205862501e-17,1.4277348209466647,5.596720498110925,0.7004589903126981,0.357189167761268,0.36936908837135074,0.47567241548177225,-6.491558914599866e-18,1.0,1.3316018286358699e-17,1.0,1.56234375,57,057.csv,057.csv
帶通+小波,0.6233044465114561,0.25587072048317394,0.2091308269026389,0.2603906250000001,1.193550011649841,0.20233865615079902,3.462164754453262e-17,1.3999516263599079,5.487810375330839,0.6987732512364279,0.14155741993869134,0.32911033573172077,0.38981366896894665,1.3316018286358699e-17,0.9999999999999999,1.3316018286358699e-17,1.0,1.56234375,57,057.csv,057.csv
帶通+小波+NLMS,0.6270090755999738,0.25497599719651415,0.5972755568553607,0.08679687499999988,1.1506864409234365,0.3664159232067464,1.6645022857948375e-17,1.37034955309973,5.371770248150941,0.7009720869763516,0.5085394831575205,0.41569187487215997,0.5417344816686773,2.3303032001127723e-17,1.0,1.3316018286358699e-17,1.0,1.56234375,57,057.csv,057.csv
原始波形,0.6197358926179152,0.253385685508952,0.19661036109170824,0.3905859374999998,1.4378836198247609,0.18441146498090893,1.3316018286358699e-18,1.4293196760194666,5.602933129996309,0.6979521798875638,0.108367007192702,0.2973016591105861,0.3678736153969506,-3.062684205862501e-17,1.0,3.1958443887260875e-17,1.0,1.6057421875,58,058.csv,058.csv
