time,ecg,hr,rr,marker
1747250971696939113,-0.371
1747250971704626304,-0.098
1747250971712313495,-0.26
1747250971720000686,-0.246
1747250971727687877,-0.14
1747250971735375068,-0.164
1747250971743062259,-0.162
1747250971750749450,-0.105
1747250971758436641,-0.093
1747250971766123832,-0.08600000000000001
1747250971773811023,-0.056
1747250971781498214,-0.032
1747250971789185405,-0.014
1747250971796872596,0.012
1747250971804559787,0.041
1747250971812246978,0.07100000000000001
1747250971819934169,0.105
1747250971827621360,0.14
1747250971835308551,0.184
1747250971842995742,0.231
1747250971850682933,0.273
1747250971858370124,0.31
1747250971866057315,0.332
1747250971873744506,0.334
1747250971881431697,0.324
1747250971889118888,0.307
1747250971896806079,0.278
1747250971904493270,0.221
1747250971912180461,0.125
1747250971919867652,0.0
1747250971927554843,-0.12
1747250971935242034,-0.214
1747250971942929225,-0.28
1747250971950616416,-0.32
1747250971958303607,-0.342
1747250971965990798,-0.34400000000000003
1747250971973677989,-0.337
1747250971981365180,-0.324
1747250971989052371,-0.315
1747250971996739562,-0.297
1747250972004426753,-0.278
1747250972012113944,-0.265
1747250972019801135,-0.253
1747250972027488326,-0.243
1747250972035175517,-0.231
1747250972042862708,-0.221
1747250972050549899,-0.214
1747250972058237090,-0.209
1747250972065924281,-0.201
1747250972073611472,-0.199
1747250972081298663,-0.199
1747250972088985854,-0.196
1747250972096673045,-0.196
1747250972104360236,-0.196
1747250972112047427,-0.194
1747250972119734618,-0.194
1747250972127421809,-0.194
1747250972135109000,-0.192
1747250972142796191,-0.187
1747250972150483382,-0.184
1747250972158170573,-0.182
1747250972165857764,-0.177
1747250972173544955,-0.17400000000000002
1747250972181232146,-0.177
1747250972188919337,-0.182
1747250972196606528,-0.177
1747250972204293719,-0.155
1747250972211980910,-0.132
1747250972219668101,-0.125
1747250972227355292,-0.125
1747250972235042483,-0.11800000000000001
1747250972242729674,-0.123
1747250972250416865,-0.155
1747250972258104097,-0.179,89,676
1747250972265791288,-0.177
1747250972273478479,-0.164
1747250972281165670,-0.162
1747250972288852861,-0.155
1747250972296540052,-0.147
1747250972304227243,-0.147
1747250972311914434,-0.162
1747250972319601625,-0.199
1747250972327288816,-0.278
1747250972334976007,-0.246
1747250972342663198,0.28500000000000003
1747250972350350389,1.191
1747250972358037580,1.705
1747250972365724771,1.223
1747250972373411962,-0.041
1747250972381099153,-0.75
1747250972388786344,-0.376
1747250972396473535,-0.1
1747250972404160726,-0.263
1747250972411847917,-0.253
1747250972419535108,-0.147
1747250972427222299,-0.169
1747250972434909490,-0.167
1747250972442596681,-0.113
1747250972450283872,-0.098
1747250972457971063,-0.091
1747250972465658254,-0.059000000000000004
1747250972473345445,-0.036000000000000004
1747250972481032636,-0.019
1747250972488719827,0.004
1747250972496407018,0.034
1747250972504094209,0.064
1747250972511781400,0.096
1747250972519468591,0.135
1747250972527155782,0.179
1747250972534842973,0.224
1747250972542530164,0.263
1747250972550217355,0.302
1747250972557904546,0.324
1747250972565591737,0.332
1747250972573278928,0.324
1747250972580966119,0.307
1747250972588653310,0.278
1747250972596340501,0.228
1747250972604027692,0.137
1747250972611714883,0.017
1747250972619402074,-0.105
1747250972627089265,-0.20600000000000002
1747250972634776456,-0.278
1747250972642463647,-0.317
1747250972650150838,-0.337
1747250972657838029,-0.34700000000000003
1747250972665525220,-0.342
1747250972673212411,-0.327
1747250972680899602,-0.312
1747250972688586793,-0.295
1747250972696273984,-0.278
1747250972703961175,-0.265
1747250972711648366,-0.253
1747250972719335557,-0.241
1747250972727022748,-0.231
1747250972734709939,-0.224
1747250972742397130,-0.214
1747250972750084321,-0.209
1747250972757771512,-0.20600000000000002
1747250972765458703,-0.20400000000000001
1747250972773145894,-0.201
1747250972780833085,-0.199
1747250972788520276,-0.199
1747250972796207467,-0.199
1747250972803894658,-0.196
1747250972811581849,-0.194
1747250972819269081,-0.194
1747250972826956272,-0.194
1747250972834643463,-0.192
1747250972842330654,-0.189
1747250972850017845,-0.187
1747250972857705036,-0.184
1747250972865392227,-0.179
1747250972873079418,-0.179
1747250972880766609,-0.184
1747250972888453800,-0.187
1747250972896140991,-0.169
1747250972903828182,-0.14200000000000002
1747250972911515373,-0.13
1747250972919202564,-0.132
1747250972926889755,-0.123
1747250972934576946,-0.115
1747250972942264137,-0.14
1747250972949951328,-0.177
1747250972957638519,-0.184
1747250972965325710,-0.169
1747250972973012901,-0.162
1747250972980700092,-0.16
1747250972988387283,-0.155
1747250972996074474,-0.152
1747250973003761665,-0.155
1747250973011448856,-0.169
1747250973019136047,-0.231
1747250973026823238,-0.295
1747250973034510429,-0.049
1747250973042197620,0.738
1747250973049884811,1.55
1747250973057572002,1.612
1747250973065259193,0.637
1747250973072946384,-0.541
1747250973080633575,-0.642
1747250973088320766,-0.162
1747250973096007957,-0.169
1747250973103695148,-0.28800000000000003
1747250973111382339,-0.179
1747250973119069530,-0.14200000000000002
1747250973126756721,-0.177
1747250973134443912,-0.137
1747250973142131103,-0.098
1747250973149818294,-0.093
1747250973157505485,-0.07100000000000001
1747250973165192676,-0.039
1747250973172879867,-0.024
1747250973180567058,-0.002
1747250973188254249,0.027
1747250973195941440,0.056
1747250973203628631,0.08600000000000001
1747250973211315822,0.123
1747250973219003013,0.164
1747250973226690204,0.20600000000000002
1747250973234377395,0.251
1747250973242064586,0.29
1747250973249751777,0.322
1747250973257438968,0.337
1747250973265126159,0.337
1747250973272813350,0.327
1747250973280500541,0.305
1747250973288187732,0.265
1747250973295874923,0.194
1747250973303562114,0.08600000000000001
1747250973311249305,-0.041
1747250973318936496,-0.155
1747250973326623687,-0.241
1747250973334310878,-0.297
1747250973341998069,-0.329
1747250973349685260,-0.339
1747250973357372451,-0.339
1747250973365059642,-0.332
1747250973372746833,-0.317
1747250973380434065,-0.302,89,676
1747250973388121256,-0.28500000000000003,,676
1747250973395808447,-0.27
1747250973403495638,-0.258
1747250973411182829,-0.246
1747250973418870020,-0.23600000000000002
1747250973426557211,-0.228
1747250973434244402,-0.224
1747250973441931593,-0.214
1747250973449618784,-0.20600000000000002
1747250973457305975,-0.20400000000000001
1747250973464993166,-0.201
1747250973472680357,-0.199
1747250973480367548,-0.196
1747250973488054739,-0.196
1747250973495741930,-0.194
1747250973503429121,-0.194
1747250973511116312,-0.192
1747250973518803503,-0.189
1747250973526490694,-0.184
1747250973534177885,-0.187
1747250973541865076,-0.184
1747250973549552267,-0.179
1747250973557239458,-0.17400000000000002
1747250973564926649,-0.17200000000000001
1747250973572613840,-0.169
1747250973580301031,-0.17400000000000002
1747250973587988222,-0.179
1747250973595675413,-0.17200000000000001
1747250973603362604,-0.15
1747250973611049795,-0.128
1747250973618736986,-0.12
1747250973626424177,-0.115
1747250973634111368,-0.108
1747250973641798559,-0.115
1747250973649485750,-0.152
1747250973657172941,-0.177
1747250973664860132,-0.17200000000000001
1747250973672547323,-0.162
1747250973680234514,-0.16
1747250973687921705,-0.152
1747250973695608896,-0.147
1747250973703296087,-0.15
1747250973710983278,-0.16
1747250973718670469,-0.192
1747250973726357660,-0.268
1747250973734044851,-0.253
1747250973741732042,0.23600000000000002
1747250973749419233,1.125
1747250973757106424,1.678
1747250973764793615,1.2750000000000001
1747250973772480806,0.049
1747250973780167997,-0.736
1747250973787855188,-0.418
1747250973795542379,-0.098
1747250973803229570,-0.248
1747250973810916761,-0.256
1747250973818603952,-0.14200000000000002
1747250973826291143,-0.157
1747250973833978334,-0.162
1747250973841665525,-0.108
1747250973849352716,-0.091
1747250973857039907,-0.083
1747250973864727098,-0.054
1747250973872414289,-0.029
1747250973880101480,-0.012
1747250973887788671,0.009000000000000001
1747250973895475862,0.036000000000000004
1747250973903163053,0.068
1747250973910850244,0.105
1747250973918537435,0.14
1747250973926224626,0.184
1747250973933911817,0.231
1747250973941599049,0.278
1747250973949286240,0.315
1747250973956973431,0.339
1747250973964660622,0.34900000000000003
1747250973972347813,0.342
1747250973980035004,0.324
1747250973987722195,0.305
1747250973995409386,0.263
1747250974003096577,0.169
1747250974010783768,0.041
1747250974018470959,-0.083
1747250974026158150,-0.182
1747250974033845341,-0.26
1747250974041532532,-0.307
1747250974049219723,-0.334
1747250974056906914,-0.34700000000000003
1747250974064594105,-0.34700000000000003
1747250974072281296,-0.327
1747250974079968487,-0.31
1747250974087655678,-0.3
1747250974095342869,-0.28800000000000003
1747250974103030060,-0.273
1747250974110717251,-0.253
1747250974118404442,-0.23600000000000002
1747250974126091633,-0.231
1747250974133778824,-0.226
1747250974141466015,-0.214
1747250974149153206,-0.20600000000000002
1747250974156840397,-0.20400000000000001
1747250974164527588,-0.199
1747250974172214779,-0.194
1747250974179901970,-0.192
1747250974187589161,-0.189
1747250974195276352,-0.187
1747250974202963543,-0.187
1747250974210650734,-0.187
1747250974218337925,-0.184
1747250974226025116,-0.182
1747250974233712307,-0.184
1747250974241399498,-0.182
1747250974249086689,-0.179
1747250974256773880,-0.17400000000000002
1747250974264461071,-0.167
1747250974272148262,-0.169
1747250974279835453,-0.17200000000000001
1747250974287522644,-0.164
1747250974295209835,-0.145
1747250974302897026,-0.12
1747250974310584217,-0.115
1747250974318271408,-0.11
1747250974325958599,-0.10300000000000001
1747250974333645790,-0.12
1747250974341332981,-0.152
1747250974349020172,-0.169
1747250974356707363,-0.167
1747250974364394554,-0.157
1747250974372081745,-0.15
1747250974379768936,-0.147
1747250974387456127,-0.147
1747250974395143318,-0.14200000000000002
1747250974402830509,-0.145
1747250974410517700,-0.179
1747250974418204891,-0.251
1747250974425892082,-0.209
1747250974433579273,0.292
1747250974441266464,1.1
1747250974448953655,1.459
1747250974456640846,0.9400000000000001
1747250974464328037,-0.13
1747250974472015228,-0.686
1747250974479702419,-0.354
1747250974487389610,-0.096
1747250974495076801,-0.211
1747250974502764029,-0.194,89,692
1747250974510451150,-0.10300000000000001
1747250974518138271,-0.123
1747250974525825392,-0.123
1747250974533512513,-0.073
1747250974541199634,-0.054
1747250974548886755,-0.049
1747250974556573876,-0.027
1747250974564260997,-0.004
1747250974571948118,0.014
1747250974579635239,0.034
1747250974587322360,0.061
1747250974595009481,0.091
1747250974602696602,0.128
1747250974610383723,0.169
1747250974618070844,0.211
1747250974625757965,0.258
1747250974633445086,0.305
1747250974641132207,0.34700000000000003
1747250974648819328,0.371
1747250974656506449,0.381
1747250974664193570,0.369
1747250974671880691,0.34400000000000003
1747250974679567812,0.317
1747250974687254933,0.265
1747250974694942054,0.164
1747250974702629175,0.032
1747250974710316296,-0.091
1747250974718003417,-0.194
1747250974725690538,-0.27
1747250974733377659,-0.312
1747250974741064780,-0.329
1747250974748751901,-0.334
1747250974756439022,-0.329
1747250974764126143,-0.32
1747250974771813264,-0.312
1747250974779500385,-0.297
1747250974787187506,-0.275
1747250974794874627,-0.263
1747250974802561748,-0.256
1747250974810248869,-0.243
1747250974817935990,-0.228
1747250974825623111,-0.219
1747250974833310232,-0.214
1747250974840997353,-0.20600000000000002
1747250974848684474,-0.196
1747250974856371595,-0.194
1747250974864058716,-0.194
1747250974871745837,-0.189
1747250974879432958,-0.187
1747250974887120079,-0.192
1747250974894807200,-0.194
1747250974902494321,-0.189
1747250974910181442,-0.182
1747250974917868563,-0.184
1747250974925555684,-0.189
1747250974933242805,-0.184
1747250974940929926,-0.177
1747250974948617047,-0.187
1747250974956304168,-0.192
1747250974963991289,-0.179
1747250974971678410,-0.157
1747250974979365531,-0.14
1747250974987052652,-0.137
1747250974994739773,-0.135
1747250975002426894,-0.125
1747250975010114015,-0.135
1747250975017801136,-0.169
1747250975025488257,-0.192
1747250975033175378,-0.182
1747250975040862499,-0.169
1747250975048549620,-0.169
1747250975056236741,-0.167
1747250975063923930,-0.162,88,696
1747250975071611051,-0.16,,704
1747250975079298172,-0.169
1747250975086985293,-0.20400000000000001
1747250975094672414,-0.268
1747250975102359535,-0.164
1747250975110046656,0.42
1747250975117733777,1.149
1747250975125420898,1.285
1747250975133108019,0.654
1747250975140795140,-0.295
1747250975148482261,-0.662
1747250975156169382,-0.327
1747250975163856503,-0.14200000000000002
1747250975171543624,-0.228
1747250975179230745,-0.192
1747250975186917866,-0.128
1747250975194604987,-0.14200000000000002
1747250975202292108,-0.13
1747250975209979229,-0.093
1747250975217666350,-0.078
1747250975225353471,-0.068
1747250975233040592,-0.046
1747250975240727713,-0.027
1747250975248414834,-0.007
1747250975256101955,0.014
1747250975263789076,0.041
1747250975271476197,0.07100000000000001
1747250975279163318,0.105
1747250975286850439,0.14
1747250975294537560,0.184
1747250975302224681,0.231
1747250975309911802,0.27
1747250975317598923,0.302
1747250975325286044,0.322
1747250975332973165,0.327
1747250975340660286,0.317
1747250975348347407,0.29
1747250975356034528,0.258
1747250975363721649,0.201
1747250975371408770,0.1
1747250975379095891,-0.022
1747250975386783012,-0.135
1747250975394470133,-0.224
1747250975402157254,-0.28300000000000003
1747250975409844375,-0.32
1747250975417531496,-0.334
1747250975425218617,-0.337
1747250975432905738,-0.334
1747250975440592859,-0.322
1747250975448279980,-0.307
1747250975455967101,-0.29
1747250975463654222,-0.28
1747250975471341343,-0.268
1747250975479028464,-0.251
1747250975486715585,-0.241
1747250975494402706,-0.233
1747250975502089827,-0.219
1747250975509776948,-0.211
1747250975517464069,-0.20600000000000002
1747250975525151190,-0.201
1747250975532838311,-0.199
1747250975540525432,-0.201
1747250975548212553,-0.199
1747250975555899674,-0.196
1747250975563586795,-0.192
1747250975571273916,-0.192
1747250975578961037,-0.192
1747250975586648158,-0.192
1747250975594335279,-0.192
1747250975602022400,-0.192
1747250975609709521,-0.184
1747250975617396642,-0.179
1747250975625083827,-0.184
1747250975632770948,-0.192
1747250975640458069,-0.184
1747250975648145190,-0.162
1747250975655832311,-0.14200000000000002
1747250975663519432,-0.135
1747250975671206553,-0.135
1747250975678893674,-0.13
1747250975686580795,-0.13
1747250975694267916,-0.16
1747250975701955037,-0.189
1747250975709642158,-0.187
1747250975717329279,-0.17200000000000001
1747250975725016400,-0.167
1747250975732703521,-0.167
1747250975740390642,-0.162
1747250975748077763,-0.157
1747250975755764884,-0.164
1747250975763452005,-0.192
1747250975771139126,-0.253
1747250975778826247,-0.219
1747250975786513368,0.256
1747250975794200489,1.038
1747250975801887610,1.43
1747250975809574731,0.994
1747250975817261852,-0.059000000000000004
1747250975824948973,-0.6940000000000001
1747250975832636094,-0.403
1747250975840323215,-0.113
1747250975848010336,-0.219
1747250975855697457,-0.228
1747250975863384578,-0.137
1747250975871071699,-0.14200000000000002
1747250975878758820,-0.14200000000000002
1747250975886445941,-0.098
1747250975894133062,-0.081
1747250975901820183,-0.076
1747250975909507304,-0.049
1747250975917194425,-0.024
1747250975924881546,-0.007
1747250975932568667,0.014
1747250975940255788,0.036000000000000004
1747250975947942909,0.064
1747250975955630030,0.096
1747250975963317151,0.132
1747250975971004272,0.17400000000000002
1747250975978691393,0.221
1747250975986378514,0.265
1747250975994065635,0.302
1747250976001752756,0.327
1747250976009439877,0.332
1747250976017126998,0.322
1747250976024814119,0.307
1747250976032501240,0.28
1747250976040188361,0.231
1747250976047875482,0.14200000000000002
1747250976055562603,0.022
1747250976063249724,-0.098
1747250976070936845,-0.196
1747250976078623966,-0.268
1747250976086311087,-0.312
1747250976093998208,-0.332
1747250976101685329,-0.334
1747250976109372450,-0.327
1747250976117059571,-0.317
1747250976124746692,-0.305
1747250976132433813,-0.29
1747250976140120934,-0.275
1747250976147808055,-0.263
1747250976155495176,-0.248
1747250976163182297,-0.23600000000000002
1747250976170869418,-0.231
1747250976178556539,-0.224
1747250976186243724,-0.214,88,690
1747250976193930845,-0.209
1747250976201617966,-0.20400000000000001
1747250976209305087,-0.199
1747250976216992208,-0.194
1747250976224679329,-0.196
1747250976232366450,-0.196
1747250976240053571,-0.196
1747250976247740692,-0.196
1747250976255427813,-0.194
1747250976263114934,-0.192
1747250976270802055,-0.189
1747250976278489176,-0.189
1747250976286176297,-0.184
1747250976293863418,-0.179
1747250976301550539,-0.182
1747250976309237660,-0.189
1747250976316924781,-0.184
1747250976324611902,-0.162
1747250976332299023,-0.137
1747250976339986144,-0.13
1747250976347673265,-0.132
1747250976355360386,-0.125
1747250976363047507,-0.125
1747250976370734628,-0.152
1747250976378421749,-0.187
1747250976386108870,-0.189
1747250976393795991,-0.17200000000000001
1747250976401483112,-0.167
1747250976409170233,-0.167
1747250976416857354,-0.16
1747250976424544475,-0.155
1747250976432231596,-0.16
1747250976439918717,-0.182
1747250976447605838,-0.246
1747250976455292959,-0.263
1747250976462980080,0.11
1747250976470667201,0.903
1747250976478354322,1.472
1747250976486041443,1.24
1747250976493728564,0.219
1747250976501415685,-0.652
1747250976509102806,-0.512
1747250976516789927,-0.128
1747250976524477048,-0.199
1747250976532164169,-0.258
1747250976539851290,-0.152
1747250976547538411,-0.14
1747250976555225532,-0.155
1747250976562912653,-0.113
1747250976570599774,-0.08600000000000001
1747250976578286895,-0.081
1747250976585974016,-0.059000000000000004
1747250976593661137,-0.034
1747250976601348258,-0.014
1747250976609035379,0.009000000000000001
1747250976616722500,0.034
1747250976624409621,0.059000000000000004
1747250976632096742,0.093
1747250976639783863,0.13
1747250976647470984,0.169
1747250976655158105,0.214
1747250976662845226,0.26
1747250976670532347,0.302
1747250976678219468,0.332
1747250976685906589,0.342
1747250976693593710,0.339
1747250976701280831,0.322
1747250976708967952,0.297
1747250976716655073,0.251
1747250976724342194,0.169
1747250976732029315,0.046
1747250976739716436,-0.083
1747250976747403621,-0.184
1747250976755090742,-0.263
1747250976762777863,-0.317
1747250976770464984,-0.334
1747250976778152105,-0.342
1747250976785839226,-0.34400000000000003
1747250976793526347,-0.332
1747250976801213468,-0.317
1747250976808900589,-0.305
1747250976816587710,-0.28800000000000003
1747250976824274831,-0.278
1747250976831961952,-0.263
1747250976839649073,-0.248
1747250976847336194,-0.241
1747250976855023315,-0.228
1747250976862710436,-0.214
1747250976870397557,-0.216
1747250976878084678,-0.209
1747250976885771799,-0.196
1747250976893458920,-0.199
1747250976901146041,-0.201
1747250976908833162,-0.194
1747250976916520283,-0.196
1747250976924207404,-0.199
1747250976931894525,-0.196
1747250976939581646,-0.189
1747250976947268767,-0.187
1747250976954955888,-0.187
1747250976962643009,-0.179
1747250976970330130,-0.179
1747250976978017251,-0.177
1747250976985704372,-0.167
1747250976993391493,-0.17200000000000001
1747250977001078614,-0.179
1747250977008765735,-0.169
1747250977016452856,-0.145
1747250977024139977,-0.125
1747250977031827098,-0.12
1747250977039514219,-0.11800000000000001
1747250977047201340,-0.113
1747250977054888461,-0.11800000000000001
1747250977062575582,-0.15
1747250977070262703,-0.179
1747250977077949824,-0.17200000000000001
1747250977085636945,-0.157
1747250977093324066,-0.157
1747250977101011187,-0.157
1747250977108698308,-0.145
1747250977116385429,-0.14
1747250977124072550,-0.155
1747250977131759671,-0.179
1747250977139446792,-0.233
1747250977147133913,-0.23600000000000002
1747250977154821034,0.177
1747250977162508155,0.9520000000000001
1747250977170195276,1.366
1747250977177882397,0.982
1747250977185569518,0.036000000000000004
1747250977193256639,-0.615
1747250977200943760,-0.43
1747250977208630881,-0.128
1747250977216318002,-0.179
1747250977224005123,-0.199
1747250977231692244,-0.123
1747250977239379365,-0.115
1747250977247066486,-0.115
1747250977254753607,-0.078
1747250977262440728,-0.059000000000000004
1747250977270127849,-0.046
1747250977277814970,-0.027
1747250977285502091,-0.002
1747250977293189212,0.014
1747250977300876333,0.034
1747250977308563518,0.059000000000000004,88,675
1747250977316250639,0.088,,679
1747250977323937760,0.125
1747250977331624881,0.167
1747250977339312002,0.20400000000000001
1747250977346999123,0.241
1747250977354686244,0.292
1747250977362373365,0.339
1747250977370060486,0.361
1747250977377747607,0.366
1747250977385434728,0.361
1747250977393121849,0.354
1747250977400808970,0.324
1747250977408496091,0.26
1747250977416183212,0.177
1747250977423870333,0.061
1747250977431557454,-0.076
1747250977439244575,-0.179
1747250977446931696,-0.246
1747250977454618817,-0.3
1747250977462305938,-0.324
1747250977469993059,-0.329
1747250977477680180,-0.332
1747250977485367301,-0.327
1747250977493054422,-0.31
1747250977500741543,-0.28800000000000003
1747250977508428664,-0.278
1747250977516115785,-0.268
1747250977523802906,-0.246
1747250977531490027,-0.23800000000000002
1747250977539177148,-0.228
1747250977546864269,-0.211
1747250977554551390,-0.211
1747250977562238511,-0.209
1747250977569925632,-0.189
1747250977577612753,-0.182
1747250977585299874,-0.182
1747250977592986995,-0.182
1747250977600674116,-0.182
1747250977608361237,-0.179
1747250977616048358,-0.192
1747250977623735479,-0.192
1747250977631422600,-0.179
1747250977639109721,-0.169
1747250977646796842,-0.162
1747250977654483963,-0.164
1747250977662171084,-0.177
1747250977669858205,-0.17200000000000001
1747250977677545326,-0.155
1747250977685232447,-0.137
1747250977692919568,-0.125
1747250977700606689,-0.128
1747250977708293810,-0.12
1747250977715980931,-0.12
1747250977723668052,-0.145
1747250977731355173,-0.17200000000000001
1747250977739042294,-0.177
1747250977746729415,-0.17200000000000001
1747250977754416536,-0.162
1747250977762103657,-0.15
1747250977769790778,-0.14
1747250977777477899,-0.14
1747250977785165020,-0.155
1747250977792852141,-0.169
1747250977800539262,-0.221
1747250977808226383,-0.253
1747250977815913504,0.061
1747250977823600625,0.758
1747250977831287746,1.1420000000000001
1747250977838974867,0.812
1747250977846661988,0.108
1747250977854349109,-0.455
1747250977862036230,-0.47500000000000003
1747250977869723415,-0.226
1747250977877410536,-0.164
1747250977885097657,-0.17400000000000002
1747250977892784778,-0.132
1747250977900471899,-0.115
1747250977908159020,-0.10300000000000001
1747250977915846141,-0.066
1747250977923533262,-0.049
1747250977931220383,-0.049
1747250977938907504,-0.034
1747250977946594625,-0.014
1747250977954281746,-0.002
1747250977961968867,0.032
1747250977969655988,0.064
1747250977977343109,0.073
1747250977985030230,0.1
1747250977992717351,0.155
1747250978000404472,0.187
1747250978008091593,0.20600000000000002
1747250978015778714,0.253
1747250978023465835,0.302
1747250978031152956,0.317
1747250978038840077,0.32
1747250978046527198,0.317
1747250978054214319,0.295
1747250978061901440,0.26
1747250978069588561,0.216
1747250978077275682,0.14
1747250978084962803,0.022
1747250978092649924,-0.093
1747250978100337045,-0.184
1747250978108024166,-0.258
1747250978115711287,-0.305
1747250978123398408,-0.32
1747250978131085529,-0.324
1747250978138772650,-0.327
1747250978146459771,-0.32
1747250978154146892,-0.305
1747250978161834013,-0.3
1747250978169521134,-0.292
1747250978177208255,-0.273
1747250978184895376,-0.258
1747250978192582497,-0.248
1747250978200269618,-0.233
1747250978207956739,-0.221
1747250978215643860,-0.209
1747250978223330981,-0.196
1747250978231018102,-0.192
1747250978238705223,-0.194
1747250978246392344,-0.184
1747250978254079465,-0.182
1747250978261766586,-0.187
1747250978269453707,-0.189
1747250978277140828,-0.187
1747250978284827949,-0.184
1747250978292515070,-0.187
1747250978300202191,-0.192
1747250978307889312,-0.194
1747250978315576433,-0.192
1747250978323263554,-0.184
1747250978330950675,-0.164
1747250978338637796,-0.15
1747250978346324917,-0.155
1747250978354012038,-0.155
1747250978361699159,-0.147
1747250978369386280,-0.157
1747250978377073401,-0.187
1747250978384760522,-0.20400000000000001
1747250978392447643,-0.199
1747250978400134764,-0.192
1747250978407821885,-0.189
1747250978415509006,-0.179
1747250978423196127,-0.17400000000000002
1747250978430883316,-0.179,88,679
1747250978438570437,-0.189
1747250978446257558,-0.216
1747250978453944679,-0.26
1747250978461631800,-0.108
1747250978469318921,0.487
1747250978477006042,1.073
1747250978484693163,1.048
1747250978492380284,0.47000000000000003
1747250978500067405,-0.31
1747250978507754526,-0.637
1747250978515441647,-0.34900000000000003
1747250978523128768,-0.152
1747250978530815889,-0.216
1747250978538503010,-0.201
1747250978546190131,-0.14200000000000002
1747250978553877252,-0.145
1747250978561564373,-0.135
1747250978569251494,-0.105
1747250978576938615,-0.091
1747250978584625736,-0.078
1747250978592312857,-0.059000000000000004
1747250978599999978,-0.039
1747250978607687099,-0.022
1747250978615374220,-0.004
1747250978623061341,0.019
1747250978630748462,0.046
1747250978638435583,0.073
1747250978646122704,0.108
1747250978653809825,0.147
1747250978661496946,0.187
1747250978669184067,0.221
1747250978676871188,0.251
1747250978684558309,0.263
1747250978692245430,0.258
1747250978699932551,0.248
1747250978707619672,0.233
1747250978715306793,0.209
1747250978722993914,0.147
1747250978730681035,0.051000000000000004
1747250978738368156,-0.059000000000000004
1747250978746055277,-0.157
1747250978753742398,-0.233
1747250978761429519,-0.28500000000000003
1747250978769116640,-0.315
1747250978776803761,-0.322
1747250978784490882,-0.322
1747250978792178003,-0.32
1747250978799865124,-0.307
1747250978807552245,-0.29
1747250978815239366,-0.275
1747250978822926487,-0.263
1747250978830613608,-0.251
1747250978838300729,-0.23600000000000002
1747250978845987850,-0.224
1747250978853674971,-0.214
1747250978861362092,-0.20600000000000002
1747250978869049213,-0.199
1747250978876736334,-0.194
1747250978884423455,-0.189
1747250978892110576,-0.189
1747250978899797697,-0.189
1747250978907484818,-0.187
1747250978915171939,-0.187
1747250978922859060,-0.187
1747250978930546181,-0.187
1747250978938233302,-0.189
1747250978945920423,-0.187
1747250978953607544,-0.182
1747250978961294665,-0.182
1747250978968981786,-0.184
1747250978976668907,-0.187
1747250978984356028,-0.182
1747250978992043213,-0.16,88,690
1747250978999730334,-0.14,,661
1747250979007417455,-0.137
1747250979015104576,-0.14
1747250979022791697,-0.13
1747250979030478818,-0.13
1747250979038165939,-0.157
1747250979045853060,-0.192
1747250979053540181,-0.189
1747250979061227302,-0.17200000000000001
1747250979068914423,-0.17200000000000001
1747250979076601544,-0.169
1747250979084288665,-0.162
1747250979091975786,-0.162
1747250979099662907,-0.169
1747250979107350028,-0.189
1747250979115037149,-0.248
1747250979122724270,-0.216
1747250979130411391,0.248
1747250979138098512,1.0090000000000001
1747250979145785633,1.381
1747250979153472754,0.979
1747250979161159875,0.0
1747250979168846996,-0.667
1747250979176534117,-0.435
1747250979184221238,-0.115
1747250979191908359,-0.209
1747250979199595480,-0.241
1747250979207282601,-0.145
1747250979214969722,-0.145
1747250979222656843,-0.15
1747250979230343964,-0.105
1747250979238031085,-0.08600000000000001
1747250979245718206,-0.081
1747250979253405327,-0.059000000000000004
1747250979261092448,-0.036000000000000004
1747250979268779569,-0.019
1747250979276466690,0.004
1747250979284153811,0.032
1747250979291840932,0.054
1747250979299528053,0.083
1747250979307215174,0.123
1747250979314902295,0.164
1747250979322589416,0.20600000000000002
1747250979330276537,0.248
1747250979337963658,0.28800000000000003
1747250979345650779,0.315
1747250979353337900,0.324
1747250979361025021,0.32
1747250979368712142,0.302
1747250979376399263,0.278
1747250979384086384,0.231
1747250979391773505,0.14
1747250979399460626,0.017
1747250979407147747,-0.10300000000000001
1747250979414834868,-0.199
1747250979422521989,-0.273
1747250979430209110,-0.324
1747250979437896231,-0.339
1747250979445583352,-0.334
1747250979453270473,-0.339
1747250979460957594,-0.334
1747250979468644715,-0.31
1747250979476331836,-0.292
1747250979484018957,-0.28800000000000003
1747250979491706078,-0.275
1747250979499393199,-0.258
1747250979507080320,-0.248
1747250979514767441,-0.241
1747250979522454562,-0.231
1747250979530141683,-0.228
1747250979537828804,-0.226
1747250979545515925,-0.219
1747250979553203110,-0.211
1747250979560890092,-0.214
1747250979568577074,-0.211
1747250979576264056,-0.20400000000000001
1747250979583951038,-0.20400000000000001
1747250979591638020,-0.20400000000000001
1747250979599325002,-0.199
1747250979607011984,-0.199
1747250979614698966,-0.199
1747250979622385948,-0.194
1747250979630072930,-0.192
1747250979637759912,-0.187
1747250979645446894,-0.182
1747250979653133876,-0.182
1747250979660820858,-0.184
1747250979668507840,-0.182
1747250979676194822,-0.164
1747250979683881804,-0.14
1747250979691568786,-0.135
1747250979699255768,-0.135
1747250979706942750,-0.125
1747250979714629732,-0.125
1747250979722316714,-0.15
1747250979730003696,-0.179
1747250979737690678,-0.187
1747250979745377660,-0.169
1747250979753064642,-0.162
1747250979760751624,-0.162
1747250979768438606,-0.157
1747250979776125588,-0.152
1747250979783812570,-0.15
1747250979791499552,-0.167
1747250979799186534,-0.224
1747250979806873516,-0.273
1747250979814560498,-0.022
1747250979822247480,0.721
1747250979829934462,1.413
1747250979837621444,1.383
1747250979845308426,0.507
1747250979852995408,-0.504
1747250979860682390,-0.603
1747250979868369372,-0.17400000000000002
1747250979876056354,-0.15
1747250979883743336,-0.251
1747250979891430318,-0.162
1747250979899117300,-0.12
1747250979906804282,-0.145
1747250979914491264,-0.113
1747250979922178246,-0.073
1747250979929865228,-0.068
1747250979937552210,-0.051000000000000004
1747250979945239192,-0.022
1747250979952926174,-0.009000000000000001
1747250979960613156,0.007
1747250979968300138,0.036000000000000004
1747250979975987120,0.061
1747250979983674102,0.091
1747250979991361084,0.132
1747250979999048066,0.17400000000000002
1747250980006735048,0.214
1747250980014422030,0.263
1747250980022109012,0.31
1747250980029795994,0.342
1747250980037482976,0.356
1747250980045169958,0.361
1747250980052856940,0.352
1747250980060543922,0.327
1747250980068230904,0.29
1747250980075917886,0.224
1747250980083604868,0.115
1747250980091291850,-0.017
1747250980098978832,-0.135
1747250980106665814,-0.224
1747250980114352837,-0.28300000000000003,88,649
1747250980122040028,-0.322
1747250980129727219,-0.337
1747250980137414410,-0.337
1747250980145101601,-0.329
1747250980152788792,-0.315
1747250980160475983,-0.3
1747250980168163174,-0.28800000000000003
1747250980175850365,-0.27
1747250980183537556,-0.256
1747250980191224747,-0.246
1747250980198911938,-0.23800000000000002
1747250980206599129,-0.228
1747250980214286320,-0.224
1747250980221973511,-0.219
1747250980229660702,-0.209
1747250980237347893,-0.201
1747250980245035084,-0.201
1747250980252722275,-0.201
1747250980260409466,-0.199
1747250980268096657,-0.194
1747250980275783848,-0.196
1747250980283471039,-0.196
1747250980291158230,-0.192
1747250980298845421,-0.189
1747250980306532612,-0.187
1747250980314219803,-0.184
1747250980321906994,-0.182
1747250980329594185,-0.177
1747250980337281376,-0.179
1747250980344968567,-0.187
1747250980352655758,-0.179
1747250980360342949,-0.155
1747250980368030140,-0.132
1747250980375717331,-0.128
1747250980383404522,-0.123
1747250980391091713,-0.11800000000000001
1747250980398778904,-0.128
1747250980406466095,-0.16
1747250980414153286,-0.182
1747250980421840477,-0.182
1747250980429527668,-0.169
1747250980437214859,-0.162
1747250980444902050,-0.16
1747250980452589241,-0.157
1747250980460276432,-0.155
1747250980467963623,-0.162
1747250980475650814,-0.192
1747250980483338005,-0.273
1747250980491025196,-0.28300000000000003
1747250980498712387,0.155
1747250980506399578,1.033
1747250980514086769,1.6460000000000001
1747250980521773960,1.363
1747250980529461151,0.20400000000000001
1747250980537148342,-0.6990000000000001
1747250980544835533,-0.494
1747250980552522724,-0.128
1747250980560209915,-0.233
1747250980567897106,-0.268
1747250980575584297,-0.155
1747250980583271488,-0.16
1747250980590958679,-0.17400000000000002
1747250980598645870,-0.123
1747250980606333061,-0.098
1747250980614020252,-0.091
1747250980621707443,-0.061
1747250980629394634,-0.036000000000000004
1747250980637081825,-0.024
1747250980644769016,-0.004
1747250980652456207,0.029
1747250980660143398,0.059000000000000004
1747250980667830589,0.091
1747250980675517821,0.132
1747250980683205012,0.177
1747250980690892203,0.221
1747250980698579394,0.268
1747250980706266585,0.312
1747250980713953776,0.34700000000000003
1747250980721640967,0.361
1747250980729328158,0.359
1747250980737015349,0.339
1747250980744702540,0.31
1747250980752389731,0.263
1747250980760076922,0.179
1747250980767764113,0.054
1747250980775451304,-0.081
1747250980783138495,-0.192
1747250980790825686,-0.273
1747250980798512877,-0.327
1747250980806200068,-0.352
1747250980813887259,-0.356
1747250980821574450,-0.352
1747250980829261641,-0.34400000000000003
1747250980836948832,-0.329
1747250980844636023,-0.315
1747250980852323214,-0.3
1747250980860010405,-0.28300000000000003
1747250980867697596,-0.265
1747250980875384787,-0.253
1747250980883071978,-0.243
1747250980890759169,-0.23600000000000002
1747250980898446360,-0.226
1747250980906133551,-0.219
1747250980913820742,-0.214
1747250980921507933,-0.211
1747250980929195124,-0.214
1747250980936882315,-0.211
1747250980944569506,-0.209
1747250980952256697,-0.20600000000000002
1747250980959943888,-0.20600000000000002
1747250980967631079,-0.20400000000000001
1747250980975318270,-0.199
1747250980983005461,-0.196
1747250980990692652,-0.194
1747250980998379843,-0.194
1747250981006067034,-0.189
1747250981013754225,-0.179
1747250981021441416,-0.179
1747250981029128607,-0.192
1747250981036815798,-0.192
1747250981044502989,-0.169
1747250981052190180,-0.145
1747250981059877371,-0.13
1747250981067564562,-0.125
1747250981075251753,-0.12
1747250981082938944,-0.11800000000000001
1747250981090626135,-0.132
1747250981098313326,-0.162
1747250981106000517,-0.182
1747250981113687708,-0.17200000000000001
1747250981121374899,-0.157
1747250981129062090,-0.157
1747250981136749281,-0.152
1747250981144436472,-0.14200000000000002
1747250981152123663,-0.14200000000000002
1747250981159810854,-0.162
1747250981167498045,-0.20400000000000001
1747250981175185236,-0.28300000000000003
1747250981182872427,-0.219
1747250981190559618,0.354
1747250981198246809,1.225
1747250981205934000,1.627
1747250981213621191,1.08
1747250981221308382,-0.11
1747250981228995573,-0.706
1747250981236682801,-0.339,89,665
1747250981244369922,-0.108,,688
1747250981252057043,-0.248
1747250981259744164,-0.221
1747250981267431285,-0.12
1747250981275118406,-0.14
1747250981282805527,-0.137
1747250981290492648,-0.088
1747250981298179769,-0.07100000000000001
1747250981305866890,-0.066
1747250981313554011,-0.041
1747250981321241132,-0.017
1747250981328928253,0.004
1747250981336615374,0.029
1747250981344302495,0.056
1747250981351989616,0.096
1747250981359676737,0.135
1747250981367363858,0.164
1747250981375050979,0.20600000000000002
1747250981382738100,0.265
1747250981390425221,0.315
1747250981398112342,0.352
1747250981405799463,0.384
1747250981413486584,0.393
1747250981421173705,0.386
1747250981428860826,0.369
1747250981436547947,0.34400000000000003
1747250981444235068,0.28500000000000003
1747250981451922189,0.187
1747250981459609310,0.056
1747250981467296431,-0.073
1747250981474983552,-0.189
1747250981482670673,-0.268
1747250981490357794,-0.31
1747250981498044915,-0.332
1747250981505732036,-0.34400000000000003
1747250981513419157,-0.339
1747250981521106278,-0.324
1747250981528793399,-0.31
1747250981536480520,-0.292
1747250981544167641,-0.278
1747250981551854762,-0.268
1747250981559541883,-0.258
1747250981567229004,-0.241
1747250981574916125,-0.224
1747250981582603246,-0.216
1747250981590290367,-0.216
1747250981597977488,-0.20600000000000002
1747250981605664609,-0.194
1747250981613351730,-0.194
1747250981621038851,-0.196
1747250981628725972,-0.189
1747250981636413093,-0.189
1747250981644100214,-0.194
1747250981651787335,-0.187
1747250981659474456,-0.184
1747250981667161577,-0.196
1747250981674848698,-0.187
1747250981682535819,-0.17200000000000001
1747250981690222940,-0.184
1747250981697910061,-0.187
1747250981705597182,-0.17400000000000002
1747250981713284303,-0.167
1747250981720971424,-0.147
1747250981728658545,-0.123
1747250981736345666,-0.125
1747250981744032787,-0.132
1747250981751719908,-0.125
1747250981759407029,-0.137
1747250981767094150,-0.167
1747250981774781271,-0.177
1747250981782468392,-0.169
1747250981790155513,-0.162
1747250981797842702,-0.16
1747250981805529823,-0.16
1747250981813216944,-0.152
1747250981820904065,-0.15
1747250981828591186,-0.16
1747250981836278307,-0.199
1747250981843965428,-0.28
1747250981851652549,-0.152
1747250981859339670,0.502
1747250981867026791,1.218
1747250981874713912,1.2650000000000001
1747250981882401033,0.61
1747250981890088154,-0.27
1747250981897775275,-0.603
1747250981905462396,-0.317
1747250981913149517,-0.16
1747250981920836638,-0.214
1747250981928523759,-0.16
1747250981936210880,-0.1
1747250981943898001,-0.123
1747250981951585122,-0.113
1747250981959272243,-0.073
1747250981966959364,-0.059000000000000004
1747250981974646485,-0.039
1747250981982333606,-0.014
1747250981990020727,-0.004
1747250981997707848,0.014
1747250982005394969,0.046
1747250982013082090,0.073
1747250982020769211,0.105
1747250982028456332,0.145
1747250982036143453,0.189
1747250982043830574,0.233
1747250982051517695,0.275
1747250982059204816,0.315
1747250982066891937,0.34400000000000003
1747250982074579058,0.366
1747250982082266179,0.369
1747250982089953300,0.356
1747250982097640421,0.339
1747250982105327542,0.297
1747250982113014663,0.231
1747250982120701784,0.137
1747250982128388905,0.007
1747250982136076026,-0.125
1747250982143763147,-0.219
1747250982151450268,-0.28300000000000003
1747250982159137389,-0.317
1747250982166824510,-0.327
1747250982174511631,-0.334
1747250982182198752,-0.329
1747250982189885873,-0.317
1747250982197572994,-0.305
1747250982205260115,-0.29
1747250982212947236,-0.273
1747250982220634357,-0.263
1747250982228321478,-0.248
1747250982236008599,-0.231
1747250982243695720,-0.224
1747250982251382841,-0.219
1747250982259069962,-0.20600000000000002
1747250982266757083,-0.196
1747250982274444204,-0.187
1747250982282131325,-0.182
1747250982289818446,-0.182
1747250982297505567,-0.184
1747250982305192688,-0.187
1747250982312879809,-0.184
1747250982320566930,-0.182
1747250982328254051,-0.182
1747250982335941172,-0.177
1747250982343628293,-0.177
1747250982351315414,-0.182
1747250982359002599,-0.182,89,683
1747250982366689720,-0.169
1747250982374376841,-0.152
1747250982382063962,-0.14
1747250982389751083,-0.137
1747250982397438204,-0.13
1747250982405125325,-0.132
1747250982412812446,-0.157
1747250982420499567,-0.182
1747250982428186688,-0.184
1747250982435873809,-0.179
1747250982443560930,-0.17400000000000002
1747250982451248051,-0.17400000000000002
1747250982458935172,-0.169
1747250982466622293,-0.162
1747250982474309414,-0.164
1747250982481996535,-0.179
1747250982489683656,-0.228
1747250982497370777,-0.28800000000000003
1747250982505057898,-0.068
1747250982512745019,0.627
1747250982520432140,1.181
1747250982528119261,0.989
1747250982535806382,0.28800000000000003
1747250982543493503,-0.391
1747250982551180624,-0.544
1747250982558867745,-0.3
1747250982566554866,-0.201
1747250982574241987,-0.214
1747250982581929108,-0.16
1747250982589616229,-0.132
1747250982597303350,-0.14200000000000002
1747250982604990471,-0.115
1747250982612677592,-0.08600000000000001
1747250982620364713,-0.078
1747250982628051834,-0.064
1747250982635738955,-0.041
1747250982643426076,-0.024
1747250982651113197,-0.002
1747250982658800318,0.024
1747250982666487439,0.049
1747250982674174560,0.07100000000000001
1747250982681861681,0.10300000000000001
1747250982689548802,0.135
1747250982697235923,0.17200000000000001
1747250982704923044,0.214
1747250982712610165,0.248
1747250982720297286,0.268
1747250982727984407,0.275
1747250982735671528,0.273
1747250982743358649,0.26
1747250982751045770,0.23600000000000002
1747250982758732891,0.199
1747250982766420012,0.14200000000000002
1747250982774107133,0.049
1747250982781794254,-0.068
1747250982789481375,-0.167
1747250982797168496,-0.241
1747250982804855617,-0.295
1747250982812542738,-0.322
1747250982820229859,-0.334
1747250982827916980,-0.339
1747250982835604101,-0.329
1747250982843291222,-0.315
1747250982850978343,-0.3
1747250982858665464,-0.28800000000000003
1747250982866352585,-0.28
1747250982874039706,-0.263
1747250982881726827,-0.246
1747250982889413948,-0.23600000000000002
1747250982897101069,-0.224
1747250982904788190,-0.211
1747250982912475311,-0.20400000000000001
1747250982920162496,-0.201
1747250982927849617,-0.192
1747250982935536738,-0.189
1747250982943223859,-0.189
1747250982950910980,-0.189
1747250982958598101,-0.189
1747250982966285222,-0.189
1747250982973972343,-0.189
1747250982981659464,-0.189
1747250982989346585,-0.187
1747250982997033706,-0.187
1747250983004720827,-0.192
1747250983012407948,-0.196
1747250983020095069,-0.192
1747250983027782190,-0.17200000000000001
1747250983035469311,-0.15
1747250983043156432,-0.147
1747250983050843553,-0.152
1747250983058530674,-0.145
1747250983066217795,-0.14
1747250983073904916,-0.162
1747250983081592037,-0.189
1747250983089279158,-0.194
1747250983096966279,-0.184
1747250983104653400,-0.179
1747250983112340521,-0.177
1747250983120027642,-0.17200000000000001
1747250983127714763,-0.167
1747250983135401884,-0.169
1747250983143089005,-0.184
1747250983150776126,-0.226
1747250983158463247,-0.265
1747250983166150368,-0.014
1747250983173837489,0.667
1747250983181524610,1.248
1747250983189211731,1.208
1747250983196898852,0.494
1747250983204585973,-0.438
1747250983212273094,-0.632
1747250983219960215,-0.224
1747250983227647336,-0.14
1747250983235334457,-0.263
1747250983243021578,-0.201
1747250983250708699,-0.14
1747250983258395820,-0.164
1747250983266082941,-0.14
1747250983273770062,-0.1
1747250983281457183,-0.096
1747250983289144304,-0.083
1747250983296831425,-0.054
1747250983304518546,-0.036000000000000004
1747250983312205667,-0.022
1747250983319892788,0.004
1747250983327579909,0.027
1747250983335267030,0.051000000000000004
1747250983342954151,0.088
1747250983350641272,0.123
1747250983358328393,0.16
1747250983366015514,0.20400000000000001
1747250983373702635,0.246
1747250983381389756,0.275
1747250983389076877,0.29
1747250983396763998,0.295
1747250983404451119,0.29
1747250983412138240,0.268
1747250983419825361,0.241
1747250983427512482,0.184
1747250983435199603,0.083
1747250983442886724,-0.034
1747250983450573845,-0.14200000000000002
1747250983458260966,-0.231
1747250983465948087,-0.29
1747250983473635208,-0.317
1747250983481322393,-0.332,89,689
1747250983489009514,-0.329,,666
1747250983496696635,-0.32
1747250983504383756,-0.307
1747250983512070877,-0.292
1747250983519757998,-0.278
1747250983527445119,-0.268
1747250983535132240,-0.253
1747250983542819361,-0.23800000000000002
1747250983550506482,-0.233
1747250983558193603,-0.231
1747250983565880724,-0.226
1747250983573567845,-0.219
1747250983581254966,-0.219
1747250983588942087,-0.219
1747250983596629208,-0.216
1747250983604316329,-0.211
1747250983612003450,-0.20600000000000002
1747250983619690571,-0.201
1747250983627377692,-0.199
1747250983635064813,-0.196
1747250983642751934,-0.199
1747250983650439055,-0.196
1747250983658126176,-0.189
1747250983665813297,-0.184
1747250983673500418,-0.192
1747250983681187539,-0.194
1747250983688874660,-0.17400000000000002
1747250983696561781,-0.147
1747250983704248902,-0.14
1747250983711936023,-0.14
1747250983719623144,-0.13
1747250983727310265,-0.123
1747250983734997386,-0.145
1747250983742684507,-0.177
1747250983750371628,-0.187
1747250983758058749,-0.179
1747250983765745870,-0.17400000000000002
1747250983773432991,-0.169
1747250983781120112,-0.162
1747250983788807233,-0.16
1747250983796494354,-0.16
1747250983804181475,-0.17200000000000001
1747250983811868596,-0.216
1747250983819555717,-0.295
1747250983827242838,-0.169
1747250983834929959,0.47500000000000003
1747250983842617080,1.334
1747250983850304201,1.671
1747250983857991322,1.0210000000000001
1747250983865678443,-0.243
1747250983873365564,-0.745
1747250983881052685,-0.292
1747250983888739806,-0.115
1747250983896426927,-0.292
1747250983904114048,-0.23800000000000002
1747250983911801169,-0.145
1747250983919488290,-0.179
1747250983927175411,-0.169
1747250983934862532,-0.115
1747250983942549653,-0.10300000000000001
1747250983950236774,-0.093
1747250983957923895,-0.066
1747250983965611016,-0.044
1747250983973298137,-0.024
1747250983980985258,0.004
1747250983988672379,0.032
1747250983996359500,0.064
1747250984004046621,0.1
1747250984011733742,0.14200000000000002
1747250984019420863,0.192
1747250984027107984,0.23800000000000002
1747250984034795105,0.28800000000000003
1747250984042482290,0.327,89,651
1747250984050169411,0.356
1747250984057856532,0.366
1747250984065543653,0.359
1747250984073230774,0.337
1747250984080917895,0.305
1747250984088605016,0.241
1747250984096292137,0.132
1747250984103979258,-0.007
1747250984111666379,-0.137
1747250984119353500,-0.23800000000000002
1747250984127040621,-0.31
1747250984134727742,-0.34900000000000003
1747250984142414863,-0.366
1747250984150101984,-0.366
1747250984157789105,-0.359
1747250984165476226,-0.34700000000000003
1747250984173163347,-0.329
1747250984180850468,-0.31
1747250984188537589,-0.295
1747250984196224710,-0.28
1747250984203911831,-0.268
1747250984211598952,-0.258
1747250984219286073,-0.248
1747250984226973194,-0.243
1747250984234660315,-0.23800000000000002
1747250984242347436,-0.233
1747250984250034557,-0.228
1747250984257721678,-0.226
1747250984265408799,-0.224
1747250984273095920,-0.224
1747250984280783041,-0.221
1747250984288470162,-0.216
1747250984296157283,-0.214
1747250984303844404,-0.211
1747250984311531525,-0.209
1747250984319218646,-0.20600000000000002
1747250984326905767,-0.20400000000000001
1747250984334592888,-0.209
1747250984342280009,-0.211
1747250984349967130,-0.201
1747250984357654251,-0.169
1747250984365341372,-0.15
1747250984373028493,-0.15
1747250984380715614,-0.145
1747250984388402735,-0.135
1747250984396089856,-0.152
1747250984403776977,-0.192
1747250984411464098,-0.20600000000000002
1747250984419151219,-0.192
1747250984426838340,-0.182
1747250984434525461,-0.179
1747250984442212582,-0.17400000000000002
1747250984449899703,-0.169
1747250984457586824,-0.164
1747250984465273945,-0.177
1747250984472961066,-0.224
1747250984480648187,-0.31
1747250984488335308,-0.23800000000000002
1747250984496022429,0.361
1747250984503709550,1.287
1747250984511396671,1.797
1747250984519083792,1.26
1747250984526770913,-0.096
1747250984534458034,-0.785
1747250984542145155,-0.352
1747250984549832276,-0.10300000000000001
1747250984557519397,-0.29
1747250984565206518,-0.26
1747250984572893639,-0.15
1747250984580580760,-0.182
1747250984588267881,-0.177
1747250984595955002,-0.11800000000000001
1747250984603642187,-0.105
1747250984611329308,-0.098
1747250984619016429,-0.064
1747250984626703550,-0.039
1747250984634390671,-0.022
1747250984642077792,0.002
1747250984649764913,0.034
1747250984657452034,0.064
1747250984665139155,0.1
1747250984672826276,0.145
1747250984680513397,0.194
1747250984688200518,0.243
1747250984695887639,0.292
1747250984703574760,0.332
1747250984711261881,0.361
1747250984718949002,0.374
1747250984726636123,0.366
1747250984734323244,0.34700000000000003
1747250984742010365,0.315
1747250984749697486,0.256
1747250984757384607,0.152
1747250984765071728,0.014
1747250984772758849,-0.11800000000000001
1747250984780445970,-0.224
1747250984788133091,-0.295
1747250984795820212,-0.339
1747250984803507333,-0.361
1747250984811194454,-0.364
1747250984818881575,-0.352
1747250984826568696,-0.334
1747250984834255817,-0.322
1747250984841942938,-0.305
1747250984849630059,-0.28800000000000003
1747250984857317180,-0.278
1747250984865004301,-0.268
1747250984872691422,-0.253
1747250984880378543,-0.243
1747250984888065664,-0.23800000000000002
1747250984895752785,-0.233
1747250984903439906,-0.226
1747250984911127027,-0.224
1747250984918814148,-0.221
1747250984926501269,-0.216
1747250984934188390,-0.211
1747250984941875511,-0.214
1747250984949562632,-0.216
1747250984957249753,-0.209
1747250984964936874,-0.199
1747250984972623995,-0.196
1747250984980311116,-0.199
1747250984987998237,-0.194
1747250984995685358,-0.189
1747250985003372479,-0.196
1747250985011059600,-0.201
1747250985018746721,-0.184
1747250985026433842,-0.155
1747250985034120963,-0.135
1747250985041808084,-0.137
1747250985049495205,-0.132
1747250985057182326,-0.123
1747250985064869447,-0.145
1747250985072556568,-0.177
1747250985080243689,-0.187
1747250985087930810,-0.182
1747250985095617931,-0.177
1747250985103305052,-0.169
1747250985110992173,-0.16
1747250985118679294,-0.152
1747250985126366415,-0.16
1747250985134053536,-0.17200000000000001
1747250985141740657,-0.219
1747250985149427778,-0.302
1747250985157114899,-0.167
1747250985164802088,0.509,89,662
1747250985172489209,1.371,,664
1747250985180176330,1.649
1747250985187863451,0.908
1747250985195550572,-0.332
1747250985203237693,-0.708
1747250985210924814,-0.246
1747250985218611935,-0.128
1747250985226299056,-0.28300000000000003
1747250985233986177,-0.209
1747250985241673298,-0.13
1747250985249360419,-0.16
1747250985257047540,-0.14200000000000002
1747250985264734661,-0.10300000000000001
1747250985272421782,-0.091
1747250985280108903,-0.068
1747250985287796024,-0.044
1747250985295483145,-0.024
1747250985303170266,-0.002
1747250985310857387,0.019
1747250985318544508,0.049
1747250985326231629,0.08600000000000001
1747250985333918750,0.12
1747250985341605871,0.162
1747250985349292992,0.211
1747250985356980113,0.26
1747250985364667234,0.305
1747250985372354355,0.34700000000000003
1747250985380041476,0.376
1747250985387728597,0.381
1747250985395415718,0.369
1747250985403102839,0.352
1747250985410789960,0.317
1747250985418477081,0.243
1747250985426164202,0.137
1747250985433851323,0.007
1747250985441538444,-0.123
1747250985449225565,-0.228
1747250985456912686,-0.292
1747250985464599807,-0.332
1747250985472286928,-0.352
1747250985479974049,-0.352
1747250985487661170,-0.339
1747250985495348291,-0.327
1747250985503035412,-0.312
1747250985510722533,-0.292
1747250985518409654,-0.278
1747250985526096775,-0.27
1747250985533783896,-0.258
1747250985541471017,-0.241
1747250985549158138,-0.231
1747250985556845259,-0.226
1747250985564532380,-0.219
1747250985572219501,-0.209
1747250985579906622,-0.20600000000000002
1747250985587593743,-0.209
1747250985595280864,-0.20400000000000001
1747250985602967985,-0.201
1747250985610655106,-0.201
1747250985618342227,-0.199
1747250985626029348,-0.194
1747250985633716469,-0.194
1747250985641403590,-0.20600000000000002
1747250985649090711,-0.20600000000000002
1747250985656777832,-0.177
1747250985664464953,-0.152
1747250985672152074,-0.147
1747250985679839195,-0.15
1747250985687526316,-0.14
1747250985695213437,-0.137
1747250985702900558,-0.164
1747250985710587679,-0.199
1747250985718274800,-0.196
1747250985725961985,-0.179
1747250985733649106,-0.177
1747250985741336227,-0.177
1747250985749023348,-0.162
1747250985756710469,-0.152
1747250985764397590,-0.164
1747250985772084711,-0.192
1747250985779771832,-0.243
1747250985787458953,-0.31
1747250985795146074,-0.11800000000000001
1747250985802833195,0.61
1747250985810520316,1.329
1747250985818207437,1.299
1747250985825894558,0.519
1747250985833581679,-0.401
1747250985841268800,-0.61
1747250985848955921,-0.26
1747250985856643042,-0.162
1747250985864330163,-0.224
1747250985872017284,-0.157
1747250985879704405,-0.123
1747250985887391526,-0.147
1747250985895078647,-0.12
1747250985902765768,-0.076
1747250985910452889,-0.059000000000000004
1747250985918140010,-0.044
1747250985925827131,-0.019
1747250985933514252,-0.007
1747250985941201373,0.009000000000000001
1747250985948888494,0.049
1747250985956575615,0.08600000000000001
1747250985964262736,0.105
1747250985971949857,0.145
1747250985979636978,0.196
1747250985987324099,0.241
1747250985995011220,0.28800000000000003
1747250986002698341,0.332
1747250986010385462,0.364
1747250986018072583,0.381
1747250986025759704,0.371
1747250986033446825,0.352
1747250986041133946,0.327
1747250986048821067,0.28300000000000003
1747250986056508188,0.199
1747250986064195309,0.081
1747250986071882430,-0.051000000000000004
1747250986079569551,-0.167
1747250986087256672,-0.248
1747250986094943793,-0.31
1747250986102630914,-0.339
1747250986110318035,-0.339
1747250986118005156,-0.337
1747250986125692277,-0.337
1747250986133379398,-0.324
1747250986141066519,-0.307
1747250986148753640,-0.297
1747250986156440761,-0.278
1747250986164127882,-0.263
1747250986171815003,-0.253
1747250986179502124,-0.241
1747250986187189245,-0.228
1747250986194876366,-0.219
1747250986202563487,-0.211
1747250986210250608,-0.20400000000000001
1747250986217937729,-0.199
1747250986225624850,-0.196
1747250986233311971,-0.192
1747250986240999092,-0.192
1747250986248686213,-0.199
1747250986256373334,-0.199
1747250986264060455,-0.199
1747250986271747576,-0.201
1747250986279434697,-0.189
1747250986287121882,-0.169,89,662
1747250986294808864,-0.16
1747250986302495846,-0.16
1747250986310182828,-0.155
1747250986317869810,-0.15
1747250986325556792,-0.177
1747250986333243774,-0.209
1747250986340930756,-0.214
1747250986348617738,-0.20600000000000002
1747250986356304720,-0.199
1747250986363991702,-0.192
1747250986371678684,-0.187
1747250986379365666,-0.179
1747250986387052648,-0.187
1747250986394739630,-0.209
1747250986402426612,-0.248
1747250986410113594,-0.307
1747250986417800576,-0.15
1747250986425487558,0.526
1747250986433174540,1.245
1747250986440861522,1.26
1747250986448548504,0.551
1747250986456235486,-0.34400000000000003
1747250986463922468,-0.635
1747250986471609450,-0.332
1747250986479296432,-0.189
1747250986486983414,-0.248
1747250986494670396,-0.201
1747250986502357378,-0.15
1747250986510044360,-0.16
1747250986517731342,-0.145
1747250986525418324,-0.11
1747250986533105306,-0.096
1747250986540792288,-0.081
1747250986548479270,-0.059000000000000004
1747250986556166252,-0.036000000000000004
1747250986563853234,-0.014
1747250986571540216,0.012
1747250986579227198,0.036000000000000004
1747250986586914180,0.068
1747250986594601162,0.10300000000000001
1747250986602288144,0.135
1747250986609975126,0.17400000000000002
1747250986617662108,0.219
1747250986625349090,0.256
1747250986633036072,0.28300000000000003
1747250986640723054,0.295
1747250986648410036,0.292
1747250986656097018,0.273
1747250986663784000,0.246
1747250986671470982,0.214
1747250986679157964,0.152
1747250986686844946,0.046
1747250986694531928,-0.076
1747250986702218910,-0.179
1747250986709905892,-0.253
1747250986717592874,-0.302
1747250986725279856,-0.329
1747250986732966838,-0.337
1747250986740653820,-0.332
1747250986748340802,-0.327
1747250986756027784,-0.315
1747250986763714766,-0.295
1747250986771401748,-0.28
1747250986779088730,-0.27
1747250986786775712,-0.258
1747250986794462694,-0.246
1747250986802149676,-0.231
1747250986809836658,-0.219
1747250986817523640,-0.211
1747250986825210622,-0.20400000000000001
1747250986832897604,-0.199
1747250986840584586,-0.194
1747250986848271609,-0.192
1747250986855958452,-0.192
1747250986863645295,-0.192
1747250986871332138,-0.192
1747250986879018981,-0.196
1747250986886705824,-0.196
1747250986894392667,-0.192
1747250986902079510,-0.194
1747250986909766353,-0.20400000000000001
1747250986917453196,-0.199
1747250986925140039,-0.179
1747250986932826882,-0.157
1747250986940513725,-0.152
1747250986948200568,-0.155
1747250986955887411,-0.147
1747250986963574254,-0.14
1747250986971261097,-0.16
1747250986978947940,-0.192
1747250986986634783,-0.201
1747250986994321626,-0.192
1747250987002008469,-0.179
1747250987009695312,-0.177
1747250987017382155,-0.17400000000000002
1747250987025068998,-0.169
1747250987032755841,-0.169
1747250987040442684,-0.184
1747250987048129527,-0.228
1747250987055816370,-0.27
1747250987063503213,-0.019
1747250987071190056,0.684
1747250987078876899,1.289
1747250987086563742,1.221
1747250987094250585,0.46
1747250987101937428,-0.452
1747250987109624271,-0.62
1747250987117311114,-0.231
1747250987124997957,-0.155
1747250987132684800,-0.256
1747250987140371643,-0.192
1747250987148058486,-0.14200000000000002
1747250987155745329,-0.162
1747250987163432172,-0.132
1747250987171119015,-0.096
1747250987178805858,-0.093
1747250987186492701,-0.078
1747250987194179544,-0.049
1747250987201866387,-0.034
1747250987209553230,-0.017
1747250987217240073,0.009000000000000001
1747250987224926916,0.034
1747250987232613759,0.059000000000000004
1747250987240300602,0.096
1747250987247987445,0.13
1747250987255674288,0.167
1747250987263361131,0.209
1747250987271047974,0.248
1747250987278734817,0.275
1747250987286421660,0.28800000000000003
1747250987294108503,0.28800000000000003
1747250987301795346,0.275
1747250987309482189,0.253
1747250987317169032,0.221
1747250987324855875,0.157
1747250987332542718,0.054
1747250987340229561,-0.064
1747250987347916404,-0.167
1747250987355603247,-0.243
1747250987363290090,-0.295
1747250987370976933,-0.317
1747250987378663776,-0.322
1747250987386350619,-0.322
1747250987394037462,-0.315
1747250987401724305,-0.297
1747250987409411158,-0.28300000000000003,90,667
1747250987417098279,-0.278,,636
1747250987424785400,-0.263
1747250987432472521,-0.246
1747250987440159642,-0.241
1747250987447846763,-0.23600000000000002
1747250987455533884,-0.226
1747250987463221005,-0.221
1747250987470908126,-0.214
1747250987478595247,-0.211
1747250987486282368,-0.214
1747250987493969489,-0.211
1747250987501656610,-0.20400000000000001
1747250987509343731,-0.201
1747250987517030852,-0.201
1747250987524717973,-0.199
1747250987532405094,-0.196
1747250987540092215,-0.194
1747250987547779336,-0.194
1747250987555466457,-0.194
1747250987563153578,-0.194
1747250987570840699,-0.192
1747250987578527820,-0.17400000000000002
1747250987586214941,-0.147
1747250987593902062,-0.14200000000000002
1747250987601589183,-0.145
1747250987609276304,-0.135
1747250987616963425,-0.135
1747250987624650546,-0.162
1747250987632337667,-0.192
1747250987640024788,-0.196
1747250987647711909,-0.184
1747250987655399030,-0.177
1747250987663086151,-0.17400000000000002
1747250987670773272,-0.169
1747250987678460393,-0.162
1747250987686147514,-0.164
1747250987693834635,-0.179
1747250987701521756,-0.219
1747250987709208877,-0.275
1747250987716895998,-0.113
1747250987724583119,0.529
1747250987732270240,1.235
1747250987739957361,1.353
1747250987747644482,0.684
1747250987755331603,-0.34400000000000003
1747250987763018724,-0.674
1747250987770705845,-0.265
1747250987778392966,-0.125
1747250987786080087,-0.256
1747250987793767208,-0.20400000000000001
1747250987801454329,-0.132
1747250987809141450,-0.157
1747250987816828571,-0.14
1747250987824515692,-0.096
1747250987832202813,-0.088
1747250987839889934,-0.073
1747250987847577055,-0.044
1747250987855264176,-0.029
1747250987862951297,-0.012
1747250987870638418,0.012
1747250987878325539,0.036000000000000004
1747250987886012660,0.066
1747250987893699781,0.1
1747250987901386902,0.137
1747250987909074023,0.177
1747250987916761144,0.219
1747250987924448265,0.26
1747250987932135386,0.29
1747250987939822507,0.307
1747250987947509628,0.31
1747250987955196749,0.302
1747250987962883870,0.28300000000000003
1747250987970571055,0.248,90,623
1747250987978258176,0.187
1747250987985945297,0.083
1747250987993632418,-0.041
1747250988001319539,-0.15
1747250988009006660,-0.23600000000000002
1747250988016693781,-0.295
1747250988024380902,-0.324
1747250988032068023,-0.334
1747250988039755144,-0.332
1747250988047442265,-0.32
1747250988055129386,-0.307
1747250988062816507,-0.295
1747250988070503628,-0.28
1747250988078190749,-0.265
1747250988085877870,-0.253
1747250988093564991,-0.246
1747250988101252112,-0.23800000000000002
1747250988108939233,-0.231
1747250988116626354,-0.224
1747250988124313475,-0.221
1747250988132000596,-0.219
1747250988139687717,-0.214
1747250988147374838,-0.211
1747250988155061959,-0.211
1747250988162749080,-0.209
1747250988170436201,-0.20600000000000002
1747250988178123322,-0.201
1747250988185810443,-0.201
1747250988193497564,-0.199
1747250988201184685,-0.194
1747250988208871806,-0.187
1747250988216558927,-0.187
1747250988224246048,-0.187
1747250988231933169,-0.187
1747250988239620290,-0.189
1747250988247307411,-0.187
1747250988254994532,-0.164
1747250988262681653,-0.14
1747250988270368774,-0.135
1747250988278055895,-0.137
1747250988285743016,-0.128
1747250988293430137,-0.125
1747250988301117258,-0.155
1747250988308804379,-0.187
1747250988316491500,-0.187
1747250988324178621,-0.17400000000000002
1747250988331865742,-0.17200000000000001
1747250988339552863,-0.167
1747250988347239984,-0.162
1747250988354927105,-0.162
1747250988362614226,-0.164
1747250988370301347,-0.169
1747250988377988468,-0.211
1747250988385675589,-0.28500000000000003
1747250988393362710,-0.152
1747250988401049831,0.489
1747250988408736952,1.2650000000000001
1747250988416424073,1.481
1747250988424111194,0.8170000000000001
1747250988431798315,-0.307
1747250988439485436,-0.7010000000000001
1747250988447172557,-0.275
1747250988454859678,-0.123
1747250988462546799,-0.265
1747250988470233920,-0.214
1747250988477921041,-0.13
1747250988485608162,-0.157
1747250988493295283,-0.14200000000000002
1747250988500982404,-0.096
1747250988508669525,-0.088
1747250988516356646,-0.081
1747250988524043767,-0.044
1747250988531730956,-0.017
1747250988539418077,-0.004
1747250988547105198,0.009000000000000001
1747250988554792319,0.039
1747250988562479440,0.073
1747250988570166561,0.105
1747250988577853682,0.14200000000000002
1747250988585540803,0.187
1747250988593227924,0.231
1747250988600915045,0.273
1747250988608602166,0.305
1747250988616289287,0.322
1747250988623976408,0.324
1747250988631663529,0.317
1747250988639350650,0.297
1747250988647037771,0.268
1747250988654724892,0.211
1747250988662412013,0.113
1747250988670099134,-0.009000000000000001
1747250988677786255,-0.13
1747250988685473376,-0.219
1747250988693160497,-0.28
1747250988700847618,-0.322
1747250988708534739,-0.334
1747250988716221860,-0.332
1747250988723908981,-0.327
1747250988731596102,-0.307
1747250988739283223,-0.28800000000000003
1747250988746970344,-0.278
1747250988754657465,-0.268
1747250988762344586,-0.256
1747250988770031707,-0.246
1747250988777718828,-0.23600000000000002
1747250988785405949,-0.226
1747250988793093070,-0.224
1747250988800780191,-0.221
1747250988808467312,-0.214
1747250988816154433,-0.209
1747250988823841554,-0.20600000000000002
1747250988831528675,-0.20400000000000001
1747250988839215796,-0.209
1747250988846902917,-0.20600000000000002
1747250988854590038,-0.199
1747250988862277159,-0.196
1747250988869964280,-0.199
1747250988877651401,-0.194
1747250988885338522,-0.187
1747250988893025643,-0.184
1747250988900712764,-0.184
1747250988908399885,-0.182
1747250988916087006,-0.179
1747250988923774127,-0.17400000000000002
1747250988931461248,-0.17200000000000001
1747250988939148369,-0.177
1747250988946835490,-0.177
1747250988954522611,-0.157
1747250988962209732,-0.132
1747250988969896853,-0.11800000000000001
1747250988977583974,-0.11800000000000001
1747250988985271095,-0.115
1747250988992958216,-0.11800000000000001
1747250989000645337,-0.14200000000000002
1747250989008332458,-0.169
1747250989016019579,-0.17200000000000001
1747250989023706700,-0.167
1747250989031393821,-0.162
1747250989039080942,-0.155
1747250989046768063,-0.15
1747250989054455184,-0.15
1747250989062142305,-0.15
1747250989069829426,-0.157
1747250989077516547,-0.196
1747250989085203668,-0.273
1747250989092890853,-0.179,91,645
1747250989100577974,0.428,,655
1747250989108265095,1.223
1747250989115952216,1.437
1747250989123639337,0.797
1747250989131326458,-0.243
1747250989139013579,-0.654
1747250989146700700,-0.302
1747250989154387821,-0.14
1747250989162074942,-0.241
1747250989169762063,-0.187
1747250989177449184,-0.12
1747250989185136305,-0.147
1747250989192823426,-0.13
1747250989200510547,-0.083
1747250989208197668,-0.078
1747250989215884789,-0.068
1747250989223571910,-0.039
1747250989231259031,-0.022
1747250989238946152,-0.004
1747250989246633273,0.019
1747250989254320394,0.044
1747250989262007515,0.076
1747250989269694636,0.113
1747250989277381757,0.147
1747250989285068878,0.187
1747250989292755999,0.228
1747250989300443120,0.27
1747250989308130241,0.297
1747250989315817362,0.32
1747250989323504483,0.327
1747250989331191604,0.312
1747250989338878725,0.29
1747250989346565846,0.26
1747250989354252967,0.211
1747250989361940088,0.128
1747250989369627209,0.007
1747250989377314330,-0.11
1747250989385001451,-0.201
1747250989392688572,-0.27
1747250989400375693,-0.307
1747250989408062814,-0.317
1747250989415749935,-0.329
1747250989423437056,-0.329
1747250989431124177,-0.31
1747250989438811298,-0.295
1747250989446498419,-0.28500000000000003
1747250989454185540,-0.27
1747250989461872661,-0.253
1747250989469559782,-0.23600000000000002
1747250989477246903,-0.228
1747250989484934024,-0.221
1747250989492621145,-0.211
1747250989500308266,-0.20400000000000001
1747250989507995387,-0.201
1747250989515682508,-0.196
1747250989523369629,-0.187
1747250989531056750,-0.187
1747250989538743871,-0.196
1747250989546430992,-0.194
1747250989554118113,-0.184
1747250989561805234,-0.189
1747250989569492355,-0.192
1747250989577179476,-0.184
1747250989584866597,-0.182
1747250989592553718,-0.184
1747250989600240839,-0.184
1747250989607927960,-0.177
1747250989615615081,-0.169
1747250989623302202,-0.167
1747250989630989323,-0.169
1747250989638676444,-0.164
1747250989646363565,-0.16
1747250989654050750,-0.147
1747250989661737732,-0.12
1747250989669424714,-0.108
1747250989677111696,-0.11
1747250989684798678,-0.115
1747250989692485660,-0.137
1747250989700172642,-0.167
1747250989707859624,-0.179
1747250989715546606,-0.167
1747250989723233588,-0.157
1747250989730920570,-0.155
1747250989738607552,-0.157
1747250989746294534,-0.155
1747250989753981516,-0.152
1747250989761668498,-0.164
1747250989769355480,-0.211
1747250989777042462,-0.28500000000000003
1747250989784729444,-0.14200000000000002
1747250989792416426,0.531
1747250989800103408,1.282
1747250989807790390,1.341
1747250989815477372,0.615
1747250989823164354,-0.332
1747250989830851336,-0.612
1747250989838538318,-0.28500000000000003
1747250989846225300,-0.169
1747250989853912282,-0.23800000000000002
1747250989861599264,-0.17400000000000002
1747250989869286246,-0.123
1747250989876973228,-0.145
1747250989884660210,-0.125
1747250989892347192,-0.088
1747250989900034174,-0.081
1747250989907721156,-0.064
1747250989915408138,-0.039
1747250989923095120,-0.027
1747250989930782102,-0.007
1747250989938469084,0.022
1747250989946156066,0.046
1747250989953843048,0.078
1747250989961530030,0.113
1747250989969217012,0.145
1747250989976903994,0.184
1747250989984590976,0.224
1747250989992277958,0.26
1747250989999964940,0.28500000000000003
1747250990007651922,0.297
1747250990015338904,0.297
1747250990023025886,0.28
1747250990030712868,0.251
1747250990038399850,0.221
1747250990046086832,0.17200000000000001
1747250990053773814,0.081
1747250990061460796,-0.032
1747250990069147778,-0.137
1747250990076834760,-0.226
1747250990084521742,-0.28800000000000003
1747250990092208724,-0.317
1747250990099895706,-0.329
1747250990107582688,-0.334
1747250990115269670,-0.327
1747250990122956652,-0.31
1747250990130643634,-0.3
1747250990138330616,-0.28800000000000003
1747250990146017598,-0.27
1747250990153704580,-0.256
1747250990161391562,-0.248
1747250990169078544,-0.23600000000000002
1747250990176765526,-0.224
1747250990184452508,-0.214
1747250990192139490,-0.20600000000000002
1747250990199826472,-0.199
1747250990207513454,-0.196
1747250990215200477,-0.196,92,677
1747250990222887668,-0.192
1747250990230574859,-0.192
1747250990238262050,-0.194
1747250990245949241,-0.192
1747250990253636432,-0.192
1747250990261323623,-0.194
1747250990269010814,-0.196
1747250990276698005,-0.194
1747250990284385196,-0.189
1747250990292072387,-0.189
1747250990299759578,-0.189
1747250990307446769,-0.182
1747250990315133960,-0.177
1747250990322821151,-0.179
1747250990330508342,-0.184
1747250990338195533,-0.187
1747250990345882724,-0.17200000000000001
1747250990353569915,-0.145
1747250990361257106,-0.13
1747250990368944297,-0.13
1747250990376631488,-0.125
1747250990384318679,-0.12
1747250990392005870,-0.137
1747250990399693061,-0.169
1747250990407380252,-0.187
1747250990415067443,-0.17400000000000002
1747250990422754634,-0.167
1747250990430441825,-0.167
1747250990438129016,-0.167
1747250990445816207,-0.162
1747250990453503398,-0.162
1747250990461190589,-0.169
1747250990468877780,-0.211
1747250990476564971,-0.28300000000000003
1747250990484252162,-0.184
1747250990491939353,0.41100000000000003
1747250990499626544,1.193
1747250990507313735,1.449
1747250990515000926,0.881
1747250990522688117,-0.187
1747250990530375308,-0.6960000000000001
1747250990538062499,-0.342
1747250990545749690,-0.12
1747250990553436881,-0.248
1747250990561124072,-0.226
1747250990568811263,-0.14
1747250990576498454,-0.16
1747250990584185645,-0.15
1747250990591872836,-0.105
1747250990599560027,-0.093
1747250990607247218,-0.08600000000000001
1747250990614934409,-0.056
1747250990622621600,-0.034
1747250990630308791,-0.022
1747250990637995982,0.002
1747250990645683173,0.024
1747250990653370364,0.049
1747250990661057555,0.078
1747250990668744746,0.115
1747250990676431937,0.15
1747250990684119128,0.187
1747250990691806319,0.226
1747250990699493510,0.258
1747250990707180701,0.28
1747250990714867892,0.28300000000000003
1747250990722555083,0.273
1747250990730242274,0.26
1747250990737929465,0.23600000000000002
1747250990745616656,0.192
1747250990753303847,0.115
1747250990760991038,0.007
1747250990768678229,-0.108
1747250990776365461,-0.199
1747250990784052234,-0.26
1747250990791739007,-0.3
1747250990799425780,-0.32
1747250990807112553,-0.324
1747250990814799326,-0.322
1747250990822486099,-0.307
1747250990830172872,-0.292
1747250990837859645,-0.278
1747250990845546418,-0.265
1747250990853233191,-0.253
1747250990860919964,-0.241
1747250990868606737,-0.231
1747250990876293510,-0.224
1747250990883980283,-0.216
1747250990891667056,-0.214
1747250990899353829,-0.209
1747250990907040602,-0.20400000000000001
1747250990914727375,-0.20400000000000001
1747250990922414148,-0.20400000000000001
1747250990930100921,-0.199
1747250990937787694,-0.196
1747250990945474467,-0.199
1747250990953161240,-0.199
1747250990960848013,-0.194
1747250990968534786,-0.192
1747250990976221559,-0.189
1747250990983908332,-0.187
1747250990991595105,-0.184
1747250990999281878,-0.182
1747250991006968651,-0.177
1747250991014655424,-0.17200000000000001
1747250991022342197,-0.167
1747250991030028970,-0.17200000000000001
1747250991037715743,-0.177
1747250991045402516,-0.169
1747250991053089289,-0.147
1747250991060776062,-0.125
1747250991068462835,-0.12
1747250991076149608,-0.12
1747250991083836381,-0.113
1747250991091523154,-0.11800000000000001
1747250991099209927,-0.152
1747250991106896700,-0.177
1747250991114583473,-0.17200000000000001
1747250991122270246,-0.164
1747250991129957019,-0.162
1747250991137643792,-0.157
1747250991145330565,-0.152
1747250991153017338,-0.145
1747250991160704111,-0.155
1747250991168390884,-0.184
1747250991176077657,-0.253
1747250991183764430,-0.275
1747250991191451203,0.091
1747250991199137976,0.915
1747250991206824749,1.577
1747250991214511522,1.415
1747250991222198295,0.329
1747250991229885068,-0.657
1747250991237571841,-0.529
1747250991245258614,-0.105
1747250991252945387,-0.199
1747250991260632160,-0.273
1747250991268318933,-0.155
1747250991276005706,-0.145
1747250991283692479,-0.167
1747250991291379252,-0.11800000000000001
1747250991299066025,-0.088
1747250991306752798,-0.088
1747250991314439571,-0.066
1747250991322126344,-0.036000000000000004
1747250991329813117,-0.024
1747250991337499923,-0.004,91,699
1747250991345187114,0.024,,690
1747250991352874305,0.054
1747250991360561496,0.083
1747250991368248687,0.115
1747250991375935878,0.152
1747250991383623069,0.199
1747250991391310260,0.246
1747250991398997451,0.28300000000000003
1747250991406684642,0.31
1747250991414371833,0.324
1747250991422059024,0.32
1747250991429746215,0.307
1747250991437433406,0.28300000000000003
1747250991445120597,0.243
1747250991452807788,0.169
1747250991460494979,0.061
1747250991468182170,-0.064
1747250991475869361,-0.17200000000000001
1747250991483556552,-0.251
1747250991491243743,-0.302
1747250991498930934,-0.337
1747250991506618125,-0.34400000000000003
1747250991514305316,-0.337
1747250991521992507,-0.327
1747250991529679698,-0.315
1747250991537366889,-0.3
1747250991545054080,-0.28300000000000003
1747250991552741271,-0.27
1747250991560428462,-0.26
1747250991568115653,-0.248
1747250991575802844,-0.23600000000000002
1747250991583490035,-0.233
1747250991591177226,-0.226
1747250991598864417,-0.221
1747250991606551608,-0.219
1747250991614238799,-0.216
1747250991621925990,-0.209
1747250991629613181,-0.209
1747250991637300372,-0.20600000000000002
1747250991644987563,-0.20400000000000001
1747250991652674754,-0.20600000000000002
1747250991660361945,-0.20400000000000001
1747250991668049136,-0.199
1747250991675736327,-0.196
1747250991683423518,-0.194
1747250991691110709,-0.192
1747250991698797900,-0.184
1747250991706485091,-0.182
1747250991714172282,-0.179
1747250991721859473,-0.177
1747250991729546664,-0.177
1747250991737233855,-0.182
1747250991744921046,-0.179
1747250991752608237,-0.16
1747250991760295428,-0.135
1747250991767982619,-0.125
1747250991775669810,-0.123
1747250991783357001,-0.115
1747250991791044192,-0.113
1747250991798731383,-0.137
1747250991806418574,-0.17400000000000002
1747250991814105765,-0.182
1747250991821792956,-0.169
1747250991829480147,-0.164
1747250991837167338,-0.162
1747250991844854529,-0.157
1747250991852541720,-0.152
1747250991860228911,-0.155
1747250991867916102,-0.17200000000000001
1747250991875603293,-0.226
1747250991883290484,-0.302
1747250991890977675,-0.145
1747250991898664911,0.556
1747250991906351963,1.432
1747250991914039015,1.701
1747250991921726067,0.903
1747250991929413119,-0.384
1747250991937100171,-0.723
1747250991944787223,-0.224
1747250991952474275,-0.13
1747250991960161327,-0.295
1747250991967848379,-0.209
1747250991975535431,-0.14
1747250991983222483,-0.182
1747250991990909535,-0.155
1747250991998596587,-0.10300000000000001
1747250992006283639,-0.1
1747250992013970691,-0.083
1747250992021657743,-0.046
1747250992029344795,-0.032
1747250992037031847,-0.017
1747250992044718899,0.009000000000000001
1747250992052405951,0.039
1747250992060093003,0.066
1747250992067780055,0.10300000000000001
1747250992075467107,0.14200000000000002
1747250992083154159,0.187
1747250992090841211,0.231
1747250992098528263,0.275
1747250992106215315,0.31
1747250992113902367,0.329
1747250992121589419,0.332
1747250992129276471,0.322
1747250992136963523,0.302
1747250992144650575,0.268
1747250992152337627,0.209
1747250992160024679,0.113
1747250992167711731,-0.009000000000000001
1747250992175398783,-0.128
1747250992183085835,-0.224
1747250992190772887,-0.28500000000000003
1747250992198459939,-0.322
1747250992206146991,-0.339
1747250992213834043,-0.34400000000000003
1747250992221521095,-0.334
1747250992229208147,-0.322
1747250992236895199,-0.307
1747250992244582251,-0.28800000000000003
1747250992252269303,-0.275
1747250992259956355,-0.265
1747250992267643407,-0.253
1747250992275330459,-0.23800000000000002
1747250992283017511,-0.231
1747250992290704563,-0.226
1747250992298391615,-0.221
1747250992306078667,-0.214
1747250992313765719,-0.211
1747250992321452771,-0.209
1747250992329139823,-0.209
1747250992336826875,-0.20600000000000002
1747250992344513927,-0.20400000000000001
1747250992352200979,-0.201
1747250992359888031,-0.201
1747250992367575083,-0.196
1747250992375262135,-0.194
1747250992382949187,-0.194
1747250992390636239,-0.189
1747250992398323291,-0.187
1747250992406010343,-0.182
1747250992413697395,-0.17400000000000002
1747250992421384447,-0.17200000000000001
1747250992429071499,-0.177
1747250992436758551,-0.182
1747250992444445603,-0.177
1747250992452132655,-0.16
1747250992459819721,-0.137,90,701
1747250992467506842,-0.125
1747250992475193963,-0.123
1747250992482881084,-0.11
1747250992490568205,-0.108
1747250992498255326,-0.14200000000000002
1747250992505942447,-0.179
1747250992513629568,-0.179
1747250992521316689,-0.167
1747250992529003810,-0.16
1747250992536690931,-0.157
1747250992544378052,-0.157
1747250992552065173,-0.152
1747250992559752294,-0.15
1747250992567439415,-0.17200000000000001
1747250992575126536,-0.233
1747250992582813657,-0.307
1747250992590500778,-0.113
1747250992598187899,0.632
1747250992605875020,1.486
1747250992613562141,1.6540000000000001
1747250992621249262,0.75
1747250992628936383,-0.48
1747250992636623504,-0.672
1747250992644310625,-0.17400000000000002
1747250992651997746,-0.14
1747250992659684867,-0.28
1747250992667371988,-0.179
1747250992675059109,-0.128
1747250992682746230,-0.164
1747250992690433351,-0.13
1747250992698120472,-0.08600000000000001
1747250992705807593,-0.08600000000000001
1747250992713494714,-0.07100000000000001
1747250992721181835,-0.036000000000000004
1747250992728868956,-0.019
1747250992736556077,0.0
1747250992744243198,0.029
1747250992751930319,0.059000000000000004
1747250992759617440,0.091
1747250992767304561,0.125
1747250992774991682,0.167
1747250992782678803,0.211
1747250992790365924,0.258
1747250992798053045,0.3
1747250992805740166,0.334
1747250992813427287,0.352
1747250992821114408,0.352
1747250992828801529,0.34700000000000003
1747250992836488650,0.327
1747250992844175771,0.28300000000000003
1747250992851862892,0.219
1747250992859550013,0.11800000000000001
1747250992867237134,-0.014
1747250992874924255,-0.135
1747250992882611376,-0.224
1747250992890298497,-0.29
1747250992897985618,-0.329
1747250992905672739,-0.342
1747250992913359860,-0.337
1747250992921046981,-0.329
1747250992928734102,-0.322
1747250992936421223,-0.305
1747250992944108344,-0.292
1747250992951795465,-0.28
1747250992959482586,-0.26
1747250992967169707,-0.248
1747250992974856828,-0.243
1747250992982543949,-0.231
1747250992990231070,-0.219
1747250992997918191,-0.214
1747250993005605312,-0.209
1747250993013292433,-0.20400000000000001
1747250993020979618,-0.201,89,703
1747250993028666739,-0.20600000000000002,,703
1747250993036353860,-0.20600000000000002
1747250993044040981,-0.199
1747250993051728102,-0.196
1747250993059415223,-0.196
1747250993067102344,-0.196
1747250993074789465,-0.199
1747250993082476586,-0.192
1747250993090163707,-0.182
1747250993097850828,-0.184
1747250993105537949,-0.192
1747250993113225070,-0.192
1747250993120912191,-0.179
1747250993128599312,-0.157
1747250993136286433,-0.135
1747250993143973554,-0.128
1747250993151660675,-0.132
1747250993159347796,-0.125
1747250993167034917,-0.128
1747250993174722038,-0.16
1747250993182409159,-0.182
1747250993190096280,-0.17400000000000002
1747250993197783401,-0.17200000000000001
1747250993205470522,-0.169
1747250993213157643,-0.162
1747250993220844764,-0.155
1747250993228531885,-0.152
1747250993236219006,-0.16
1747250993243906127,-0.184
1747250993251593248,-0.253
1747250993259280369,-0.297
1747250993266967490,0.041
1747250993274654611,0.881
1747250993282341732,1.536
1747250993290028853,1.331
1747250993297715974,0.29
1747250993305403095,-0.63
1747250993313090216,-0.531
1747250993320777337,-0.147
1747250993328464458,-0.201
1747250993336151579,-0.246
1747250993343838700,-0.147
1747250993351525821,-0.14
1747250993359212942,-0.155
1747250993366900063,-0.11
1747250993374587184,-0.08600000000000001
1747250993382274305,-0.083
1747250993389961426,-0.061
1747250993397648547,-0.034
1747250993405335668,-0.014
1747250993413022789,0.007
1747250993420709910,0.034
1747250993428397031,0.061
1747250993436084152,0.096
1747250993443771273,0.132
1747250993451458394,0.17200000000000001
1747250993459145515,0.214
1747250993466832636,0.256
1747250993474519757,0.29
1747250993482206878,0.315
1747250993489893999,0.322
1747250993497581120,0.315
1747250993505268241,0.297
1747250993512955362,0.268
1747250993520642483,0.221
1747250993528329604,0.14200000000000002
1747250993536016725,0.032
1747250993543703846,-0.08600000000000001
1747250993551390967,-0.189
1747250993559078088,-0.268
1747250993566765209,-0.315
1747250993574452330,-0.339
1747250993582139515,-0.34900000000000003
1747250993589826636,-0.34400000000000003
1747250993597513757,-0.329
1747250993605200878,-0.32
1747250993612887999,-0.307
1747250993620575120,-0.28800000000000003
1747250993628262241,-0.273
1747250993635949362,-0.263
1747250993643636483,-0.251
1747250993651323604,-0.241
1747250993659010725,-0.233
1747250993666697846,-0.221
1747250993674384967,-0.214
1747250993682072088,-0.209
1747250993689759209,-0.20600000000000002
1747250993697446330,-0.20400000000000001
1747250993705133451,-0.201
1747250993712820572,-0.201
1747250993720507693,-0.201
1747250993728194814,-0.199
1747250993735881935,-0.199
1747250993743569056,-0.199
1747250993751256177,-0.196
1747250993758943298,-0.194
1747250993766630419,-0.192
1747250993774317540,-0.189
1747250993782004661,-0.192
1747250993789691782,-0.196
1747250993797378903,-0.192
1747250993805066024,-0.169
1747250993812753145,-0.14200000000000002
1747250993820440266,-0.137
1747250993828127387,-0.14200000000000002
1747250993835814508,-0.13
1747250993843501629,-0.13
1747250993851188750,-0.162
1747250993858875871,-0.192
1747250993866562992,-0.192
1747250993874250113,-0.177
1747250993881937234,-0.169
1747250993889624355,-0.169
1747250993897311476,-0.167
1747250993904998597,-0.162
1747250993912685718,-0.162
1747250993920372839,-0.184
1747250993928059960,-0.246
1747250993935747081,-0.28500000000000003
1747250993943434202,0.029
1747250993951121323,0.834
1747250993958808444,1.526
1747250993966495565,1.427
1747250993974182686,0.403
1747250993981869807,-0.635
1747250993989556928,-0.588
1747250993997244049,-0.14
1747250994004931170,-0.192
1747250994012618291,-0.28300000000000003
1747250994020305412,-0.17200000000000001
1747250994027992533,-0.15
1747250994035679654,-0.177
1747250994043366775,-0.132
1747250994051053896,-0.098
1747250994058741017,-0.096
1747250994066428138,-0.073
1747250994074115259,-0.049
1747250994081802380,-0.029
1747250994089489501,-0.007
1747250994097176622,0.014
1747250994104863743,0.036000000000000004
1747250994112550864,0.07100000000000001
1747250994120237985,0.108
1747250994127925106,0.14200000000000002
1747250994135612227,0.184
1747250994143299412,0.228,88,699
1747250994150986533,0.268
1747250994158673654,0.292
1747250994166360775,0.302
1747250994174047896,0.297
1747250994181735017,0.28300000000000003
1747250994189422138,0.263
1747250994197109259,0.226
1747250994204796380,0.157
1747250994212483501,0.049
1747250994220170622,-0.073
1747250994227857743,-0.17400000000000002
1747250994235544864,-0.251
1747250994243231985,-0.302
1747250994250919106,-0.327
1747250994258606227,-0.337
1747250994266293348,-0.334
1747250994273980469,-0.322
1747250994281667590,-0.307
1747250994289354711,-0.295
1747250994297041832,-0.278
1747250994304728953,-0.263
1747250994312416074,-0.253
1747250994320103195,-0.241
1747250994327790316,-0.231
1747250994335477437,-0.224
1747250994343164558,-0.219
1747250994350851679,-0.214
1747250994358538800,-0.209
1747250994366225921,-0.20600000000000002
1747250994373913042,-0.20400000000000001
1747250994381600163,-0.201
1747250994389287284,-0.201
1747250994396974405,-0.199
1747250994404661526,-0.196
1747250994412348647,-0.196
1747250994420035768,-0.194
1747250994427722889,-0.192
1747250994435410010,-0.187
1747250994443097131,-0.187
1747250994450784252,-0.189
1747250994458471373,-0.192
1747250994466158494,-0.187
1747250994473845615,-0.164
1747250994481532736,-0.14
1747250994489219857,-0.135
1747250994496906978,-0.135
1747250994504594099,-0.128
1747250994512281220,-0.13
1747250994519968341,-0.162
1747250994527655462,-0.192
1747250994535342583,-0.189
1747250994543029704,-0.177
1747250994550716825,-0.17400000000000002
1747250994558403946,-0.167
1747250994566091067,-0.16
1747250994573778188,-0.16
1747250994581465309,-0.164
1747250994589152430,-0.187
1747250994596839551,-0.256
1747250994604526672,-0.295
1747250994612213793,0.049
1747250994619900914,0.886
1747250994627588035,1.6
1747250994635275156,1.472
1747250994642962277,0.379
1747250994650649398,-0.662
1747250994658336519,-0.5660000000000001
1747250994666023640,-0.12
1747250994673710761,-0.199
1747250994681397882,-0.28500000000000003
1747250994689085003,-0.167
1747250994696772124,-0.15
1747250994704459309,-0.177
1747250994712146430,-0.13
1747250994719833551,-0.096
1747250994727520672,-0.093
1747250994735207793,-0.073
1747250994742894914,-0.044
1747250994750582035,-0.027
1747250994758269156,-0.004
1747250994765956277,0.022
1747250994773643398,0.049
1747250994781330519,0.081
1747250994789017640,0.115
1747250994796704761,0.157
1747250994804391882,0.199
1747250994812079003,0.246
1747250994819766124,0.28300000000000003
1747250994827453245,0.307
1747250994835140366,0.32
1747250994842827487,0.317
1747250994850514608,0.3
1747250994858201729,0.273
1747250994865888850,0.231
1747250994873575971,0.155
1747250994881263092,0.041
1747250994888950213,-0.088
1747250994896637334,-0.194
1747250994904324455,-0.265
1747250994912011576,-0.312
1747250994919698697,-0.337
1747250994927385818,-0.34400000000000003
1747250994935072939,-0.337
1747250994942760060,-0.327
1747250994950447181,-0.315
1747250994958134302,-0.295
1747250994965821423,-0.278
1747250994973508544,-0.265
1747250994981195665,-0.253
1747250994988882786,-0.246
1747250994996569907,-0.241
1747250995004257028,-0.233
1747250995011944149,-0.224
1747250995019631270,-0.221
1747250995027318391,-0.216
1747250995035005512,-0.209
1747250995042692633,-0.20600000000000002
1747250995050379754,-0.20600000000000002
1747250995058066875,-0.20400000000000001
1747250995065753996,-0.201
1747250995073441117,-0.199
1747250995081128238,-0.199
1747250995088815359,-0.201
1747250995096502480,-0.194
1747250995104189601,-0.184
1747250995111876722,-0.184
1747250995119563843,-0.189
1747250995127250964,-0.194
1747250995134938085,-0.187
1747250995142625206,-0.162
1747250995150312327,-0.137
1747250995157999448,-0.132
1747250995165686569,-0.132
1747250995173373690,-0.125
1747250995181060811,-0.125
1747250995188747932,-0.157
1747250995196435053,-0.187
1747250995204122174,-0.184
1747250995211809295,-0.169
1747250995219496416,-0.167
1747250995227183537,-0.164
1747250995234870658,-0.157
1747250995242557779,-0.152
1747250995250244900,-0.157
1747250995257932021,-0.184
1747250995265619210,-0.26,88,674
1747250995273306331,-0.268
1747250995280993452,0.169
1747250995288680573,1.041
1747250995296367694,1.6340000000000001
1747250995304054815,1.304
1747250995311741936,0.11800000000000001
1747250995319429057,-0.721
1747250995327116178,-0.452
1747250995334803299,-0.093
1747250995342490420,-0.224
1747250995350177541,-0.258
1747250995357864662,-0.14
1747250995365551783,-0.145
1747250995373238904,-0.16
1747250995380926025,-0.108
1747250995388613146,-0.078
1747250995396300267,-0.078
1747250995403987388,-0.059000000000000004
1747250995411674509,-0.024
1747250995419361630,-0.004
1747250995427048751,0.009000000000000001
1747250995434735872,0.039
1747250995442422993,0.076
1747250995450110114,0.108
1747250995457797235,0.147
1747250995465484356,0.194
1747250995473171477,0.23800000000000002
1747250995480858598,0.28300000000000003
1747250995488545719,0.32
1747250995496232840,0.34400000000000003
1747250995503919961,0.354
1747250995511607082,0.34700000000000003
1747250995519294203,0.329
1747250995526981324,0.307
1747250995534668445,0.256
1747250995542355566,0.15
1747250995550042687,0.022
1747250995557729808,-0.1
1747250995565416929,-0.199
1747250995573104050,-0.27
1747250995580791171,-0.32
1747250995588478292,-0.342
1747250995596165413,-0.342
1747250995603852534,-0.332
1747250995611539655,-0.327
1747250995619226776,-0.32
1747250995626913897,-0.297
1747250995634601018,-0.275
1747250995642288139,-0.265
1747250995649975260,-0.256
1747250995657662381,-0.241
1747250995665349502,-0.231
1747250995673036623,-0.221
1747250995680723744,-0.214
1747250995688410865,-0.209
1747250995696097986,-0.20400000000000001
1747250995703785107,-0.20400000000000001
1747250995711472228,-0.20400000000000001
1747250995719159349,-0.199
1747250995726846470,-0.196
1747250995734533591,-0.196
1747250995742220712,-0.194
1747250995749907833,-0.189
1747250995757594954,-0.192
1747250995765282075,-0.194
1747250995772969196,-0.196
1747250995780656317,-0.194
1747250995788343438,-0.182
1747250995796030559,-0.16
1747250995803717680,-0.14200000000000002
1747250995811404801,-0.14
1747250995819091922,-0.137
1747250995826779107,-0.132
1747250995834466019,-0.155
1747250995842152931,-0.187
1747250995849839843,-0.192
1747250995857526755,-0.182
1747250995865213667,-0.17400000000000002
1747250995872900579,-0.17200000000000001
1747250995880587491,-0.167
1747250995888274403,-0.164
1747250995895961315,-0.162
1747250995903648227,-0.17400000000000002
1747250995911335139,-0.216
1747250995919022051,-0.292
1747250995926708963,-0.209
1747250995934395875,0.396
1747250995942082787,1.216
1747250995949769699,1.445
1747250995957456611,0.785
1747250995965143523,-0.28300000000000003
1747250995972830435,-0.6890000000000001
1747250995980517347,-0.312
1747250995988204259,-0.132
1747250995995891171,-0.241
1747250996003578083,-0.199
1747250996011264995,-0.125
1747250996018951907,-0.147
1747250996026638819,-0.135
1747250996034325731,-0.093
1747250996042012643,-0.08600000000000001
1747250996049699555,-0.07100000000000001
1747250996057386467,-0.039
1747250996065073379,-0.019
1747250996072760291,-0.004
1747250996080447203,0.024
1747250996088134115,0.054
1747250996095821027,0.081
1747250996103507939,0.123
1747250996111194851,0.162
1747250996118881763,0.201
1747250996126568675,0.248
1747250996134255587,0.295
1747250996141942499,0.324
1747250996149629411,0.337
1747250996157316323,0.334
1747250996165003235,0.32
1747250996172690147,0.3
1747250996180377059,0.263
1747250996188063971,0.192
1747250996195750883,0.083
1747250996203437795,-0.039
1747250996211124707,-0.152
1747250996218811619,-0.23600000000000002
1747250996226498531,-0.297
1747250996234185443,-0.329
1747250996241872355,-0.339
1747250996249559267,-0.339
1747250996257246179,-0.332
1747250996264933091,-0.32
1747250996272620003,-0.305
1747250996280306915,-0.28800000000000003
1747250996287993827,-0.273
1747250996295680739,-0.26
1747250996303367651,-0.251
1747250996311054563,-0.23800000000000002
1747250996318741475,-0.226
1747250996326428387,-0.216
1747250996334115299,-0.20600000000000002
1747250996341802211,-0.20400000000000001
1747250996349489123,-0.201
1747250996357176035,-0.199
1747250996364862947,-0.192
1747250996372549859,-0.192
1747250996380236771,-0.196
1747250996387923747,-0.194,88,677
1747250996395610938,-0.194,,669
1747250996403298129,-0.196
1747250996410985320,-0.192
1747250996418672511,-0.192
1747250996426359702,-0.199
1747250996434046893,-0.201
1747250996441734084,-0.192
1747250996449421275,-0.169
1747250996457108466,-0.15
1747250996464795657,-0.145
1747250996472482848,-0.145
1747250996480170039,-0.135
1747250996487857230,-0.14200000000000002
1747250996495544421,-0.179
1747250996503231612,-0.209
1747250996510918803,-0.196
1747250996518605994,-0.184
1747250996526293185,-0.182
1747250996533980376,-0.177
1747250996541667567,-0.17200000000000001
1747250996549354758,-0.17200000000000001
1747250996557041949,-0.177
1747250996564729140,-0.20400000000000001
1747250996572416331,-0.278
1747250996580103522,-0.251
1747250996587790713,0.248
1747250996595477904,1.083
1747250996603165095,1.5230000000000001
1747250996610852286,1.08
1747250996618539477,-0.039
1747250996626226668,-0.726
1747250996633913859,-0.42
1747250996641601050,-0.12
1747250996649288241,-0.241
1747250996656975432,-0.241
1747250996664662623,-0.145
1747250996672349814,-0.16
1747250996680037005,-0.164
1747250996687724196,-0.113
1747250996695411387,-0.096
1747250996703098578,-0.091
1747250996710785769,-0.064
1747250996718472960,-0.039
1747250996726160151,-0.024
1747250996733847342,-0.007
1747250996741534533,0.022
1747250996749221724,0.056
1747250996756908915,0.088
1747250996764596106,0.123
1747250996772283297,0.164
1747250996779970488,0.209
1747250996787657679,0.246
1747250996795344870,0.278
1747250996803032061,0.295
1747250996810719252,0.297
1747250996818406443,0.28800000000000003
1747250996826093634,0.268
1747250996833780825,0.243
1747250996841468016,0.194
1747250996849155207,0.10300000000000001
1747250996856842398,-0.014
1747250996864529589,-0.125
1747250996872216780,-0.216
1747250996879903971,-0.28
1747250996887591162,-0.315
1747250996895278353,-0.327
1747250996902965544,-0.329
1747250996910652735,-0.322
1747250996918339926,-0.31
1747250996926027117,-0.295
1747250996933714308,-0.28
1747250996941401499,-0.265
1747250996949088731,-0.251
1747250996956775574,-0.23800000000000002
1747250996964462417,-0.231
1747250996972149260,-0.221
1747250996979836103,-0.211
1747250996987522946,-0.20600000000000002
1747250996995209789,-0.20400000000000001
1747250997002896632,-0.201
1747250997010583475,-0.201
1747250997018270318,-0.199
1747250997025957161,-0.194
1747250997033644004,-0.192
1747250997041330847,-0.194
1747250997049017690,-0.192
1747250997056704533,-0.187
1747250997064391376,-0.187
1747250997072078219,-0.189
1747250997079765062,-0.196
1747250997087451905,-0.192
1747250997095138748,-0.17200000000000001
1747250997102825591,-0.147
1747250997110512434,-0.14200000000000002
1747250997118199277,-0.14
1747250997125886120,-0.13
1747250997133572963,-0.13
1747250997141259806,-0.157
1747250997148946649,-0.189
1747250997156633492,-0.192
1747250997164320335,-0.17400000000000002
1747250997172007178,-0.17200000000000001
1747250997179694021,-0.17200000000000001
1747250997187380864,-0.162
1747250997195067707,-0.157
1747250997202754550,-0.164
1747250997210441393,-0.184
1747250997218128236,-0.243
1747250997225815079,-0.28
1747250997233501922,0.036000000000000004
1747250997241188765,0.839
1747250997248875608,1.5210000000000001
1747250997256562451,1.408
1747250997264249294,0.401
1747250997271936137,-0.608
1747250997279622980,-0.5760000000000001
1747250997287309823,-0.14200000000000002
1747250997294996666,-0.184
1747250997302683509,-0.273
1747250997310370352,-0.169
1747250997318057195,-0.14200000000000002
1747250997325744038,-0.164
1747250997333430881,-0.123
1747250997341117724,-0.093
1747250997348804567,-0.088
1747250997356491410,-0.064
1747250997364178253,-0.036000000000000004
1747250997371865096,-0.022
1747250997379551939,0.0
1747250997387238782,0.027
1747250997394925625,0.054
1747250997402612468,0.083
1747250997410299311,0.123
1747250997417986154,0.164
1747250997425672997,0.20400000000000001
1747250997433359840,0.246
1747250997441046683,0.28800000000000003
1747250997448733526,0.312
1747250997456420369,0.32
1747250997464107212,0.312
1747250997471794055,0.295
1747250997479480898,0.273
1747250997487167741,0.228
1747250997494854584,0.14
1747250997502541427,0.022
1747250997510228280,-0.098,88,667
1747250997517915401,-0.196,,650
1747250997525602522,-0.27
1747250997533289643,-0.315
1747250997540976764,-0.337
1747250997548663885,-0.342
1747250997556351006,-0.337
1747250997564038127,-0.322
1747250997571725248,-0.307
1747250997579412369,-0.295
1747250997587099490,-0.278
1747250997594786611,-0.263
1747250997602473732,-0.251
1747250997610160853,-0.243
1747250997617847974,-0.233
1747250997625535095,-0.224
1747250997633222216,-0.219
1747250997640909337,-0.214
1747250997648596458,-0.209
1747250997656283579,-0.20400000000000001
1747250997663970700,-0.20400000000000001
1747250997671657821,-0.201
1747250997679344942,-0.199
1747250997687032063,-0.196
1747250997694719184,-0.196
1747250997702406305,-0.196
1747250997710093426,-0.192
1747250997717780547,-0.194
1747250997725467668,-0.201
1747250997733154789,-0.199
1747250997740841910,-0.17400000000000002
1747250997748529031,-0.15
1747250997756216152,-0.147
1747250997763903273,-0.145
1747250997771590394,-0.137
1747250997779277515,-0.135
1747250997786964636,-0.16
1747250997794651757,-0.194
1747250997802338878,-0.196
1747250997810025999,-0.182
1747250997817713120,-0.177
1747250997825400241,-0.17400000000000002
1747250997833087362,-0.167
1747250997840774483,-0.164
1747250997848461604,-0.17200000000000001
1747250997856148725,-0.189
1747250997863835846,-0.243
1747250997871522967,-0.28500000000000003
1747250997879210088,0.029
1747250997886897209,0.851
1747250997894584330,1.56
1747250997902271451,1.435
1747250997909958572,0.379
1747250997917645693,-0.635
1747250997925332814,-0.5680000000000001
1747250997933019935,-0.137
1747250997940707056,-0.196
1747250997948394177,-0.278
1747250997956081298,-0.167
1747250997963768419,-0.15
1747250997971455540,-0.17400000000000002
1747250997979142661,-0.128
1747250997986829782,-0.096
1747250997994516903,-0.093
1747250998002204024,-0.073
1747250998009891145,-0.046
1747250998017578266,-0.027
1747250998025265387,-0.004
1747250998032952508,0.022
1747250998040639629,0.049
1747250998048326750,0.081
1747250998056013871,0.11800000000000001
1747250998063700992,0.16
1747250998071388177,0.20400000000000001,89,655
1747250998079075298,0.246
1747250998086762419,0.28500000000000003
1747250998094449540,0.307
1747250998102136661,0.315
1747250998109823782,0.307
1747250998117510903,0.295
1747250998125198024,0.27
1747250998132885145,0.221
1747250998140572266,0.132
1747250998148259387,0.014
1747250998155946508,-0.105
1747250998163633629,-0.20400000000000001
1747250998171320750,-0.27
1747250998179007871,-0.312
1747250998186694992,-0.337
1747250998194382113,-0.34400000000000003
1747250998202069234,-0.339
1747250998209756355,-0.327
1747250998217443476,-0.312
1747250998225130597,-0.295
1747250998232817718,-0.28
1747250998240504839,-0.268
1747250998248191960,-0.256
1747250998255879081,-0.243
1747250998263566202,-0.233
1747250998271253323,-0.228
1747250998278940444,-0.221
1747250998286627565,-0.216
1747250998294314686,-0.214
1747250998302001807,-0.211
1747250998309688928,-0.209
1747250998317376049,-0.20400000000000001
1747250998325063170,-0.20600000000000002
1747250998332750291,-0.20400000000000001
1747250998340437412,-0.201
1747250998348124533,-0.20400000000000001
1747250998355811654,-0.211
1747250998363498775,-0.209
1747250998371185896,-0.189
1747250998378873017,-0.164
1747250998386560138,-0.155
1747250998394247259,-0.155
1747250998401934380,-0.147
1747250998409621501,-0.145
1747250998417308622,-0.169
1747250998424995743,-0.20400000000000001
1747250998432682864,-0.20600000000000002
1747250998440369985,-0.192
1747250998448057106,-0.189
1747250998455744227,-0.189
1747250998463431348,-0.182
1747250998471118469,-0.177
1747250998478805590,-0.184
1747250998486492711,-0.211
1747250998494179832,-0.28300000000000003
1747250998501866953,-0.307
1747250998509554074,0.096
1747250998517241195,0.9570000000000001
1747250998524928316,1.57
1747250998532615437,1.287
1747250998540302558,0.155
1747250998547989679,-0.718
1747250998555676800,-0.497
1747250998563363921,-0.12
1747250998571051042,-0.231
1747250998578738163,-0.27
1747250998586425284,-0.157
1747250998594112405,-0.162
1747250998601799526,-0.179
1747250998609486647,-0.128
1747250998617173768,-0.10300000000000001
1747250998624860889,-0.098
1747250998632548078,-0.07100000000000001
1747250998640235199,-0.044
1747250998647922320,-0.027
1747250998655609441,-0.004
1747250998663296562,0.024
1747250998670983683,0.051000000000000004
1747250998678670804,0.08600000000000001
1747250998686357925,0.123
1747250998694045046,0.16
1747250998701732167,0.201
1747250998709419288,0.243
1747250998717106409,0.278
1747250998724793530,0.292
1747250998732480651,0.295
1747250998740167772,0.28800000000000003
1747250998747854893,0.268
1747250998755542014,0.23800000000000002
1747250998763229135,0.184
1747250998770916256,0.091
1747250998778603377,-0.029
1747250998786290498,-0.14200000000000002
1747250998793977619,-0.231
1747250998801664740,-0.29
1747250998809351861,-0.324
1747250998817038982,-0.337
1747250998824726103,-0.339
1747250998832413224,-0.334
1747250998840100345,-0.317
1747250998847787466,-0.3
1747250998855474587,-0.28800000000000003
1747250998863161708,-0.273
1747250998870848829,-0.26
1747250998878535950,-0.248
1747250998886223071,-0.241
1747250998893910192,-0.233
1747250998901597313,-0.226
1747250998909284434,-0.219
1747250998916971555,-0.214
1747250998924658676,-0.209
1747250998932345797,-0.20600000000000002
1747250998940032918,-0.20600000000000002
1747250998947720039,-0.20400000000000001
1747250998955407160,-0.201
1747250998963094281,-0.20400000000000001
1747250998970781402,-0.211
1747250998978468523,-0.214
1747250998986155644,-0.201
1747250998993842765,-0.17400000000000002
1747250999001529886,-0.16
1747250999009217007,-0.162
1747250999016904128,-0.164
1747250999024591249,-0.152
1747250999032278370,-0.155
1747250999039965491,-0.189
1747250999047652612,-0.214
1747250999055339733,-0.20400000000000001
1747250999063026854,-0.189
1747250999070713975,-0.189
1747250999078401096,-0.182
1747250999086088217,-0.17400000000000002
1747250999093775338,-0.179
1747250999101462459,-0.199
1747250999109149580,-0.253
1747250999116836701,-0.329
1747250999124523822,-0.14
1747250999132210943,0.605
1747250999139898064,1.43
1747250999147585185,1.538
1747250999155272306,0.669
1747250999162959427,-0.47200000000000003
1747250999170646548,-0.667
1747250999178333669,-0.211
1747250999186020790,-0.16
1747250999193707975,-0.28800000000000003,90,648
1747250999201395096,-0.201,,646
1747250999209082217,-0.15
1747250999216769338,-0.179
1747250999224456459,-0.145
1747250999232143580,-0.10300000000000001
1747250999239830701,-0.10300000000000001
1747250999247517822,-0.083
1747250999255204943,-0.049
1747250999262892064,-0.034
1747250999270579185,-0.017
1747250999278266306,0.014
1747250999285953427,0.044
1747250999293640548,0.076
1747250999301327669,0.113
1747250999309014790,0.152
1747250999316701911,0.194
1747250999324389032,0.23600000000000002
1747250999332076153,0.275
1747250999339763274,0.307
1747250999347450395,0.317
1747250999355137516,0.31
1747250999362824637,0.29
1747250999370511758,0.265
1747250999378198879,0.226
1747250999385886000,0.152
1747250999393573121,0.036000000000000004
1747250999401260242,-0.088
1747250999408947363,-0.192
1747250999416634484,-0.258
1747250999424321605,-0.297
1747250999432008726,-0.324
1747250999439695847,-0.334
1747250999447382968,-0.327
1747250999455070089,-0.312
1747250999462757210,-0.295
1747250999470444331,-0.278
1747250999478131452,-0.268
1747250999485818573,-0.253
1747250999493505694,-0.23800000000000002
1747250999501192815,-0.233
1747250999508879936,-0.226
1747250999516567057,-0.211
1747250999524254178,-0.20600000000000002
1747250999531941299,-0.20600000000000002
1747250999539628420,-0.199
1747250999547315541,-0.196
1747250999555002662,-0.199
1747250999562689783,-0.199
1747250999570376904,-0.194
1747250999578064025,-0.196
1747250999585751146,-0.20400000000000001
1747250999593438267,-0.196
1747250999601125388,-0.17400000000000002
1747250999608812509,-0.157
1747250999616499630,-0.15
1747250999624186751,-0.155
1747250999631873872,-0.152
1747250999639560993,-0.152
1747250999647248114,-0.17400000000000002
1747250999654935235,-0.201
1747250999662622356,-0.194
1747250999670309477,-0.182
1747250999677996598,-0.182
1747250999685683719,-0.177
1747250999693370840,-0.17200000000000001
1747250999701057961,-0.17400000000000002
1747250999708745082,-0.184
1747250999716432203,-0.224
1747250999724119324,-0.315
1747250999731806445,-0.23600000000000002
1747250999739493566,0.371
1747250999747180687,1.169
1747250999754867872,1.366
1747250999762554854,0.711
1747250999770241836,-0.28800000000000003
1747250999777928818,-0.642
1747250999785615800,-0.29
1747250999793302782,-0.13
1747250999800989764,-0.226
1747250999808676746,-0.179
1747250999816363728,-0.123
1747250999824050710,-0.147
1747250999831737692,-0.13
1747250999839424674,-0.081
1747250999847111656,-0.068
1747250999854798638,-0.056
1747250999862485620,-0.027
1747250999870172602,-0.007
1747250999877859584,0.012
1747250999885546566,0.039
1747250999893233548,0.064
1747250999900920530,0.093
1747250999908607512,0.14
1747250999916294494,0.179
1747250999923981476,0.216
1747250999931668458,0.265
1747250999939355440,0.307
1747250999947042422,0.327
1747250999954729404,0.334
1747250999962416386,0.332
1747250999970103368,0.315
1747250999977790350,0.28500000000000003
1747250999985477332,0.241
1747250999993164314,0.164
1747251000000851296,0.054
1747251000008538278,-0.07100000000000001
1747251000016225260,-0.177
1747251000023912242,-0.253
1747251000031599224,-0.297
1747251000039286206,-0.324
1747251000046973188,-0.332
1747251000054660170,-0.329
1747251000062347152,-0.322
1747251000070034134,-0.305
1747251000077721116,-0.28800000000000003
1747251000085408098,-0.275
1747251000093095080,-0.263
1747251000100782062,-0.246
1747251000108469044,-0.233
1747251000116156026,-0.228
1747251000123843008,-0.221
1747251000131529990,-0.214
1747251000139216972,-0.20400000000000001
1747251000146903954,-0.199
1747251000154590936,-0.194
1747251000162277918,-0.196
1747251000169964900,-0.199
1747251000177651882,-0.199
1747251000185338864,-0.20400000000000001
1747251000193025846,-0.20600000000000002
1747251000200712828,-0.192
1747251000208399810,-0.167
1747251000216086792,-0.16
1747251000223773774,-0.169
1747251000231460756,-0.169
1747251000239147738,-0.157
1747251000246834720,-0.17200000000000001
1747251000254521702,-0.209
1747251000262208684,-0.216
1747251000269895666,-0.20400000000000001
1747251000277582648,-0.20400000000000001
1747251000285269630,-0.199
1747251000292956612,-0.192
1747251000300643594,-0.187
1747251000308330576,-0.192
1747251000316017599,-0.216,90,629
1747251000323704790,-0.29
1747251000331391981,-0.34400000000000003
1747251000339079172,-0.017
1747251000346766363,0.802
1747251000354453554,1.395
1747251000362140745,1.169
1747251000369827936,0.241
1747251000377515127,-0.605
1747251000385202318,-0.5630000000000001
1747251000392889509,-0.189
1747251000400576700,-0.20600000000000002
1747251000408263891,-0.26
1747251000415951082,-0.17200000000000001
1747251000423638273,-0.155
1747251000431325464,-0.169
1747251000439012655,-0.128
1747251000446699846,-0.1
1747251000454387037,-0.098
1747251000462074228,-0.078
1747251000469761419,-0.049
1747251000477448610,-0.032
1747251000485135801,-0.012
1747251000492822992,0.014
1747251000500510183,0.044
1747251000508197374,0.073
1747251000515884565,0.108
1747251000523571756,0.14
1747251000531258947,0.179
1747251000538946138,0.221
1747251000546633329,0.246
1747251000554320520,0.258
1747251000562007711,0.258
1747251000569694902,0.248
1747251000577382093,0.226
1747251000585069284,0.199
1747251000592756475,0.152
1747251000600443666,0.066
1747251000608130857,-0.041
1747251000615818048,-0.14200000000000002
1747251000623505239,-0.221
1747251000631192430,-0.275
1747251000638879621,-0.307
1747251000646566812,-0.322
1747251000654254003,-0.322
1747251000661941194,-0.317
1747251000669628385,-0.302
1747251000677315576,-0.28800000000000003
1747251000685002767,-0.273
1747251000692689958,-0.26
1747251000700377149,-0.246
1747251000708064340,-0.233
1747251000715751531,-0.224
1747251000723438722,-0.216
1747251000731125913,-0.209
1747251000738813104,-0.20400000000000001
1747251000746500295,-0.199
1747251000754187486,-0.196
1747251000761874677,-0.194
1747251000769561868,-0.192
1747251000777249059,-0.194
1747251000784936250,-0.192
1747251000792623441,-0.189
1747251000800310632,-0.192
1747251000807997823,-0.199
1747251000815685014,-0.20400000000000001
1747251000823372205,-0.192
1747251000831059396,-0.167
1747251000838746587,-0.155
1747251000846433778,-0.155
1747251000854120969,-0.152
1747251000861808160,-0.14200000000000002
1747251000869495351,-0.152
1747251000877182583,-0.189
1747251000884869356,-0.209
1747251000892556129,-0.194
1747251000900242902,-0.184
1747251000907929675,-0.187
1747251000915616448,-0.179
1747251000923303221,-0.17200000000000001
1747251000930989994,-0.179
1747251000938676767,-0.199
1747251000946363540,-0.251
1747251000954050313,-0.295
1747251000961737086,-0.014
1747251000969423859,0.753
1747251000977110632,1.422
1747251000984797405,1.341
1747251000992484178,0.423
1747251001000170951,-0.5680000000000001
1747251001007857724,-0.608
1747251001015544497,-0.17400000000000002
1747251001023231270,-0.177
1747251001030918043,-0.278
1747251001038604816,-0.184
1747251001046291589,-0.147
1747251001053978362,-0.17400000000000002
1747251001061665135,-0.14
1747251001069351908,-0.10300000000000001
1747251001077038681,-0.098
1747251001084725454,-0.076
1747251001092412227,-0.046
1747251001100099000,-0.029
1747251001107785773,-0.009000000000000001
1747251001115472546,0.017
1747251001123159319,0.044
1747251001130846092,0.07100000000000001
1747251001138532865,0.10300000000000001
1747251001146219638,0.14200000000000002
1747251001153906411,0.179
1747251001161593184,0.216
1747251001169279957,0.251
1747251001176966730,0.27
1747251001184653503,0.275
1747251001192340276,0.268
1747251001200027049,0.253
1747251001207713822,0.231
1747251001215400595,0.192
1747251001223087368,0.115
1747251001230774141,0.002
1747251001238460914,-0.11
1747251001246147687,-0.199
1747251001253834460,-0.26
1747251001261521233,-0.3
1747251001269208006,-0.32
1747251001276894779,-0.324
1747251001284581552,-0.315
1747251001292268325,-0.302
1747251001299955098,-0.28800000000000003
1747251001307641871,-0.273
1747251001315328644,-0.258
1747251001323015417,-0.248
1747251001330702190,-0.23800000000000002
1747251001338388963,-0.226
1747251001346075736,-0.219
1747251001353762509,-0.216
1747251001361449282,-0.214
1747251001369136055,-0.209
1747251001376822828,-0.20600000000000002
1747251001384509601,-0.20400000000000001
1747251001392196374,-0.201
1747251001399883147,-0.201
1747251001407569920,-0.201
1747251001415256693,-0.199
1747251001422943466,-0.194
1747251001430630239,-0.196
1747251001438317045,-0.201,92,618
1747251001446004166,-0.201,,608
1747251001453691287,-0.182
1747251001461378408,-0.16
1747251001469065529,-0.152
1747251001476752650,-0.152
1747251001484439771,-0.145
1747251001492126892,-0.14
1747251001499814013,-0.162
1747251001507501134,-0.199
1747251001515188255,-0.20400000000000001
1747251001522875376,-0.189
1747251001530562497,-0.184
1747251001538249618,-0.179
1747251001545936739,-0.17400000000000002
1747251001553623860,-0.17400000000000002
1747251001561310981,-0.182
1747251001568998102,-0.20600000000000002
1747251001576685223,-0.275
1747251001584372344,-0.263
1747251001592059465,0.199
1747251001599746586,1.043
1747251001607433707,1.553
1747251001615120828,1.176
1747251001622807949,0.044
1747251001630495070,-0.721
1747251001638182191,-0.44
1747251001645869312,-0.105
1747251001653556433,-0.23800000000000002
1747251001661243554,-0.263
1747251001668930675,-0.15
1747251001676617796,-0.155
1747251001684304917,-0.167
1747251001691992038,-0.115
1747251001699679159,-0.093
1747251001707366280,-0.088
1747251001715053401,-0.059000000000000004
1747251001722740522,-0.034
1747251001730427643,-0.019
1747251001738114764,0.004
1747251001745801885,0.034
1747251001753489006,0.061
1747251001761176127,0.093
1747251001768863248,0.132
1747251001776550369,0.17200000000000001
1747251001784237490,0.211
1747251001791924611,0.248
1747251001799611732,0.28
1747251001807298853,0.295
1747251001814985974,0.295
1747251001822673095,0.28300000000000003
1747251001830360216,0.265
1747251001838047337,0.23600000000000002
1747251001845734458,0.179
1747251001853421579,0.088
1747251001861108700,-0.029
1747251001868795821,-0.14
1747251001876482942,-0.224
1747251001884170063,-0.278
1747251001891857184,-0.31
1747251001899544305,-0.322
1747251001907231426,-0.322
1747251001914918547,-0.312
1747251001922605668,-0.295
1747251001930292789,-0.28300000000000003
1747251001937979910,-0.27
1747251001945667031,-0.256
1747251001953354152,-0.243
1747251001961041273,-0.233
1747251001968728394,-0.224
1747251001976415515,-0.219
1747251001984102636,-0.216
1747251001991789757,-0.211
1747251001999476946,-0.20600000000000002,94,604
1747251002007164067,-0.20400000000000001,,624
1747251002014851188,-0.201
1747251002022538309,-0.199
1747251002030225430,-0.199
1747251002037912551,-0.199
1747251002045599672,-0.194
1747251002053286793,-0.194
1747251002060973914,-0.194
1747251002068661035,-0.196
1747251002076348156,-0.201
1747251002084035277,-0.196
1747251002091722398,-0.17200000000000001
1747251002099409519,-0.15
1747251002107096640,-0.15
1747251002114783761,-0.15
1747251002122470882,-0.137
1747251002130158003,-0.14
1747251002137845124,-0.169
1747251002145532245,-0.196
1747251002153219366,-0.194
1747251002160906487,-0.182
1747251002168593608,-0.179
1747251002176280729,-0.17400000000000002
1747251002183967850,-0.167
1747251002191654971,-0.167
1747251002199342092,-0.179
1747251002207029213,-0.221
1747251002214716334,-0.292
1747251002222403455,-0.17200000000000001
1747251002230090576,0.47500000000000003
1747251002237777697,1.317
1747251002245464818,1.57
1747251002253151939,0.841
1747251002260839060,-0.352
1747251002268526181,-0.716
1747251002276213302,-0.256
1747251002283900423,-0.123
1747251002291587544,-0.275
1747251002299274665,-0.209
1747251002306961786,-0.132
1747251002314648907,-0.167
1747251002322336028,-0.145
1747251002330023149,-0.096
1747251002337710270,-0.091
1747251002345397391,-0.078
1747251002353084512,-0.044
1747251002360771633,-0.027
1747251002368458754,-0.009000000000000001
1747251002376145875,0.014
1747251002383832996,0.044
1747251002391520117,0.07100000000000001
1747251002399207238,0.105
1747251002406894359,0.145
1747251002414581480,0.184
1747251002422268601,0.221
1747251002429955722,0.258
1747251002437642843,0.28300000000000003
1747251002445329964,0.292
1747251002453017085,0.28800000000000003
1747251002460704206,0.273
1747251002468391327,0.253
1747251002476078448,0.216
1747251002483765569,0.15
1747251002491452690,0.049
1747251002499139811,-0.068
1747251002506826932,-0.169
1747251002514514053,-0.241
1747251002522201174,-0.28800000000000003
1747251002529888295,-0.317
1747251002537575416,-0.322
1747251002545262537,-0.317
1747251002552949658,-0.307
1747251002560636843,-0.295
1747251002568323964,-0.28300000000000003
1747251002576011085,-0.268
1747251002583698206,-0.253
1747251002591385327,-0.243
1747251002599072448,-0.233
1747251002606759569,-0.226
1747251002614446690,-0.221
1747251002622133811,-0.216
1747251002629820932,-0.209
1747251002637508053,-0.20600000000000002
1747251002645195174,-0.20400000000000001
1747251002652882295,-0.201
1747251002660569416,-0.20400000000000001
1747251002668256537,-0.201
1747251002675943658,-0.199
1747251002683630779,-0.196
1747251002691317900,-0.194
1747251002699005021,-0.192
1747251002706692142,-0.192
1747251002714379263,-0.196
1747251002722066384,-0.199
1747251002729753505,-0.187
1747251002737440626,-0.16
1747251002745127747,-0.14200000000000002
1747251002752814868,-0.14200000000000002
1747251002760501989,-0.14200000000000002
1747251002768189110,-0.132
1747251002775876231,-0.14
1747251002783563352,-0.17400000000000002
1747251002791250473,-0.196
1747251002798937594,-0.187
1747251002806624715,-0.179
1747251002814311836,-0.17400000000000002
1747251002821998957,-0.169
1747251002829686078,-0.162
1747251002837373199,-0.167
1747251002845060320,-0.184
1747251002852747441,-0.233
1747251002860434562,-0.295
1747251002868121683,-0.07100000000000001
1747251002875808804,0.679
1747251002883495925,1.452
1747251002891183046,1.491
1747251002898870167,0.556
1747251002906557288,-0.558
1747251002914244409,-0.637
1747251002921931530,-0.162
1747251002929618651,-0.162
1747251002937305772,-0.278
1747251002944992893,-0.17400000000000002
1747251002952680014,-0.132
1747251002960367135,-0.167
1747251002968054256,-0.13
1747251002975741377,-0.091
1747251002983428498,-0.088
1747251002991115619,-0.064
1747251002998802740,-0.036000000000000004
1747251003006489861,-0.022
1747251003014176982,0.0
1747251003021864103,0.027
1747251003029551224,0.054
1747251003037238345,0.083
1747251003044925466,0.11800000000000001
1747251003052612587,0.152
1747251003060299708,0.192
1747251003067986829,0.231
1747251003075673950,0.26
1747251003083361071,0.278
1747251003091048192,0.28500000000000003
1747251003098735313,0.28
1747251003106422434,0.26
1747251003114109555,0.23800000000000002
1747251003121796740,0.199,94,628
1747251003129483861,0.125
1747251003137170982,0.019
1747251003144858103,-0.088
1747251003152545224,-0.182
1747251003160232345,-0.251
1747251003167919466,-0.295
1747251003175606587,-0.317
1747251003183293708,-0.322
1747251003190980829,-0.315
1747251003198667950,-0.302
1747251003206355071,-0.29
1747251003214042192,-0.275
1747251003221729313,-0.26
1747251003229416434,-0.248
1747251003237103555,-0.23800000000000002
1747251003244790676,-0.228
1747251003252477797,-0.221
1747251003260164918,-0.216
1747251003267852039,-0.209
1747251003275539160,-0.20400000000000001
1747251003283226281,-0.20400000000000001
1747251003290913402,-0.201
1747251003298600523,-0.199
1747251003306287644,-0.201
1747251003313974765,-0.201
1747251003321661886,-0.199
1747251003329349007,-0.196
1747251003337036128,-0.194
1747251003344723249,-0.192
1747251003352410370,-0.196
1747251003360097491,-0.201
1747251003367784612,-0.196
1747251003375471733,-0.17200000000000001
1747251003383158854,-0.15
1747251003390845975,-0.147
1747251003398533096,-0.147
1747251003406220217,-0.135
1747251003413907338,-0.135
1747251003421594459,-0.169
1747251003429281580,-0.199
1747251003436968701,-0.194
1747251003444655822,-0.179
1747251003452342943,-0.179
1747251003460030064,-0.17400000000000002
1747251003467717185,-0.164
1747251003475404306,-0.164
1747251003483091427,-0.179
1747251003490778548,-0.221
1747251003498465669,-0.295
1747251003506152790,-0.152
1747251003513839911,0.524
1747251003521527032,1.356
1747251003529214153,1.555
1747251003536901274,0.753
1747251003544588395,-0.433
1747251003552275516,-0.7010000000000001
1747251003559962637,-0.219
1747251003567649758,-0.128
1747251003575336879,-0.275
1747251003583024000,-0.199
1747251003590711121,-0.137
1747251003598398242,-0.167
1747251003606085363,-0.135
1747251003613772484,-0.096
1747251003621459605,-0.093
1747251003629146726,-0.073
1747251003636833847,-0.041
1747251003644520968,-0.024
1747251003652208089,-0.004
1747251003659895210,0.029
1747251003667582331,0.054
1747251003675269452,0.078
1747251003682956637,0.113
1747251003690643758,0.152
1747251003698330879,0.192
1747251003706018000,0.23600000000000002
1747251003713705121,0.268
1747251003721392242,0.29
1747251003729079363,0.3
1747251003736766484,0.292
1747251003744453605,0.273
1747251003752140726,0.253
1747251003759827847,0.219
1747251003767514968,0.152
1747251003775202089,0.046
1747251003782889210,-0.07100000000000001
1747251003790576331,-0.17200000000000001
1747251003798263452,-0.246
1747251003805950573,-0.29
1747251003813637694,-0.315
1747251003821324815,-0.322
1747251003829011936,-0.317
1747251003836699057,-0.307
1747251003844386178,-0.295
1747251003852073299,-0.278
1747251003859760420,-0.258
1747251003867447541,-0.243
1747251003875134662,-0.23800000000000002
1747251003882821783,-0.231
1747251003890508904,-0.219
1747251003898196025,-0.209
1747251003905883146,-0.20400000000000001
1747251003913570267,-0.20600000000000002
1747251003921257388,-0.201
1747251003928944509,-0.194
1747251003936631630,-0.192
1747251003944318751,-0.196
