time,ecg,hr,rr,marker
1746648929405625129,-0.073,77,761
1746648929413312668,-0.096
1746648929421000207,-0.11
1746648929428687746,-0.115
1746648929436375285,-0.11
1746648929444062824,-0.108
1746648929451750363,-0.115
1746648929459437902,-0.12
1746648929467125441,-0.115
1746648929474812980,-0.098
1746648929482500519,-0.088
1746648929490188058,-0.096
1746648929497875597,-0.10300000000000001
1746648929505563136,-0.096
1746648929513250675,-0.078
1746648929520938214,-0.078
1746648929528625753,-0.088
1746648929536313292,-0.08600000000000001
1746648929544000831,-0.088
1746648929551688370,-0.101
1746648929559375909,-0.093
1746648929567063448,-0.066
1746648929574750987,-0.064
1746648929582438526,-0.08600000000000001
1746648929590126065,-0.083
1746648929597813604,-0.069
1746648929605501143,-0.08600000000000001
1746648929613188682,-0.108
1746648929620876221,-0.096
1746648929628563760,-0.054
1746648929636251299,-0.054
1746648929643938838,-0.10300000000000001
1746648929651626377,-0.108
1746648929659313916,-0.07100000000000001
1746648929667001455,-0.061
1746648929674688994,-0.066
1746648929682376533,-0.051000000000000004
1746648929690064072,-0.054
1746648929697751611,-0.08600000000000001
1746648929705439150,-0.066
1746648929713126689,-0.022
1746648929720814228,-0.046
1746648929728501767,-0.064
1746648929736189306,-0.029
1746648929743876845,-0.022
1746648929751564384,-0.076
1746648929759251923,-0.093
1746648929766939462,-0.036000000000000004
1746648929774627001,-0.044
1746648929782314540,-0.096
1746648929790002079,-0.096
1746648929797689618,-0.054
1746648929805377157,0.226
1746648929813064696,0.742
1746648929820752235,0.885
1746648929828439774,0.3
1746648929836127313,-0.342
1746648929843814852,-0.34500000000000003
1746648929851502391,-0.162
1746648929859189930,-0.234
1746648929866877469,-0.197
1746648929874565008,-0.036000000000000004
1746648929882252547,-0.032
1746648929889940086,-0.081
1746648929897627625,-0.041
1746648929905315164,-0.044
1746648929913002703,-0.08600000000000001
1746648929920690242,-0.022
1746648929928377781,0.036000000000000004
1746648929936065320,0.012
1746648929943752859,0.009000000000000001
1746648929951440398,0.029
1746648929959127937,0.029
1746648929966815544,0.014
1746648929974503083,0.022
1746648929982190622,0.054
1746648929989878161,0.07100000000000001
1746648929997565700,0.066
1746648930005253239,0.069
1746648930012940778,0.101
1746648930020628317,0.125
1746648930028315856,0.11
1746648930036003395,0.108
1746648930043690934,0.14300000000000002
1746648930051378473,0.162
1746648930059066012,0.14300000000000002
1746648930066753551,0.14300000000000002
1746648930074441090,0.167
1746648930082128629,0.162
1746648930089816168,0.138
1746648930097503707,0.113
1746648930105191246,0.096
1746648930112878785,0.051000000000000004
1746648930120566324,-0.012
1746648930128253863,-0.034
1746648930135941402,-0.046
1746648930143628941,-0.106
1746648930151316480,-0.14300000000000002
1746648930159004019,-0.133
1746648930166691558,-0.138
1746648930174379097,-0.147
1746648930182066636,-0.14
1746648930189754175,-0.14
1746648930197441714,-0.138
1746648930205129253,-0.12
1746648930212816792,-0.10300000000000001
1746648930220504331,-0.101
1746648930228191870,-0.123
1746648930235879409,-0.14
1746648930243566948,-0.128
1746648930251254487,-0.123
1746648930258942026,-0.15
1746648930266629565,-0.14
1746648930274317104,-0.115
1746648930282004643,-0.123
1746648930289692182,-0.123
1746648930297379721,-0.11
1746648930305067260,-0.115
1746648930312754799,-0.11800000000000001
1746648930320442338,-0.113
1746648930328129877,-0.11800000000000001
1746648930335817416,-0.125
1746648930343504955,-0.115
1746648930351192494,-0.10300000000000001
1746648930358880033,-0.11
1746648930366567572,-0.11
1746648930374255111,-0.108
1746648930381942650,-0.108
1746648930389630189,-0.083
1746648930397317728,-0.066
1746648930405005267,-0.078
1746648930412692806,-0.073
1746648930420380345,-0.061
1746648930428067884,-0.076
1746648930435755423,-0.091
1746648930443442962,-0.096
1746648930451130501,-0.101
1746648930458818040,-0.113
1746648930466505579,-0.11800000000000001
1746648930474193118,-0.11
1746648930481880657,-0.11
1746648930489568196,-0.133
1746648930497255735,-0.167
1746648930504943274,-0.12
1746648930512630813,0.187
1746648930520318352,0.66
1746648930528005959,0.712,78,743
1746648930535693498,0.091,,733
1746648930543381037,-0.47800000000000004
1746648930551068576,-0.446
1746648930558756115,-0.273
1746648930566443654,-0.28300000000000003
1746648930574131193,-0.234
1746648930581818732,-0.11
1746648930589506271,-0.083
1746648930597193810,-0.093
1746648930604881349,-0.073
1746648930612568888,-0.056
1746648930620256427,-0.049
1746648930627943966,-0.039
1746648930635631505,-0.046
1746648930643319044,-0.051000000000000004
1746648930651006583,-0.032
1746648930658694122,-0.009000000000000001
1746648930666381661,-0.004
1746648930674069200,-0.004
1746648930681756739,0.007
1746648930689444278,0.014
1746648930697131817,0.029
1746648930704819356,0.054
1746648930712506895,0.056
1746648930720194434,0.051000000000000004
1746648930727881973,0.069
1746648930735569512,0.101
1746648930743257051,0.128
1746648930750944590,0.145
1746648930758632129,0.145
1746648930766319668,0.147
1746648930774007207,0.167
1746648930781694746,0.18
1746648930789382285,0.167
1746648930797069824,0.14
1746648930804757363,0.113
1746648930812444902,0.081
1746648930820132441,0.044
1746648930827819980,0.0
1746648930835507519,-0.049
1746648930843195058,-0.088
1746648930850882597,-0.108
1746648930858570136,-0.11800000000000001
1746648930866257675,-0.135
1746648930873945214,-0.138
1746648930881632753,-0.115
1746648930889320292,-0.11
1746648930897007831,-0.115
1746648930904695370,-0.108
1746648930912382909,-0.091
1746648930920070448,-0.08600000000000001
1746648930927757987,-0.091
1746648930935445526,-0.081
1746648930943133065,-0.066
1746648930950820604,-0.069
1746648930958508143,-0.078
1746648930966195682,-0.076
1746648930973883221,-0.066
1746648930981570760,-0.056
1746648930989258299,-0.046
1746648930996945838,-0.049
1746648931004633377,-0.061
1746648931012320916,-0.064
1746648931020008455,-0.051000000000000004
1746648931027695994,-0.036000000000000004
1746648931035383533,-0.034
1746648931043071072,-0.044
1746648931050758611,-0.046
1746648931058446150,-0.044
1746648931066133689,-0.029
1746648931073821228,-0.019
1746648931081508767,-0.027
1746648931089196374,-0.022
1746648931096883913,0.0
1746648931104571452,0.007
1746648931112258991,0.007
1746648931119946530,0.004
1746648931127634069,0.002
1746648931135321608,0.004
1746648931143009147,-0.002
1746648931150696686,-0.007
1746648931158384225,0.002
1746648931166071764,0.007
1746648931173759303,-0.004
1746648931181446842,-0.007
1746648931189134381,-0.012
1746648931196821920,-0.034
1746648931204509459,0.128
1746648931212196998,0.579
1746648931219884537,0.843
1746648931227572076,0.443
1746648931235259615,-0.182
1746648931242947154,-0.342
1746648931250634693,-0.182
1746648931258322232,-0.14300000000000002
1746648931266009771,-0.128
1746648931273697310,-0.012
1746648931281384849,0.024
1746648931289072388,-0.009000000000000001
1746648931296759927,0.009000000000000001
1746648931304447466,0.041
1746648931312135005,0.034
1746648931319822544,0.039
1746648931327510083,0.056
1746648931335197622,0.049
1746648931342885161,0.044
1746648931350572700,0.064
1746648931358260239,0.076
1746648931365947778,0.076
1746648931373635317,0.083
1746648931381322856,0.093
1746648931389010395,0.088
1746648931396697934,0.093
1746648931404385473,0.113
1746648931412073012,0.123
1746648931419760551,0.128
1746648931427448090,0.145
1746648931435135629,0.157
1746648931442823168,0.155
1746648931450510707,0.165
1746648931458198246,0.182
1746648931465885785,0.197
1746648931473573324,0.197
1746648931481260863,0.184
1746648931488948402,0.189
1746648931496635941,0.18
1746648931504323480,0.135
1746648931512011019,0.10300000000000001
1746648931519698558,0.073
1746648931527386097,0.029
1746648931535073636,0.0
1746648931542761175,-0.019
1746648931550448714,-0.051000000000000004
1746648931558136253,-0.064
1746648931565823792,-0.054
1746648931573511331,-0.059000000000000004
1746648931581198870,-0.066
1746648931588886409,-0.061
1746648931596573948,-0.066
1746648931604261487,-0.073
1746648931611949026,-0.061
1746648931619636565,-0.046
1746648931627324104,-0.044
1746648931635011643,-0.044
1746648931642699182,-0.049
1746648931650386789,-0.054,78,732
1746648931658074328,-0.061
1746648931665761867,-0.064
1746648931673449406,-0.054
1746648931681136945,-0.054
1746648931688824484,-0.064
1746648931696512023,-0.07100000000000001
1746648931704199562,-0.069
1746648931711887101,-0.061
1746648931719574640,-0.059000000000000004
1746648931727262179,-0.064
1746648931734949718,-0.07100000000000001
1746648931742637257,-0.081
1746648931750324796,-0.07100000000000001
1746648931758012335,-0.059000000000000004
1746648931765699874,-0.066
1746648931773387413,-0.073
1746648931781074952,-0.07100000000000001
1746648931788762491,-0.07100000000000001
1746648931796450030,-0.064
1746648931804137569,-0.036000000000000004
1746648931811825108,-0.024
1746648931819512647,-0.027
1746648931827200186,-0.039
1746648931834887725,-0.054
1746648931842575264,-0.036000000000000004
1746648931850262803,-0.032
1746648931857950342,-0.073
1746648931865637881,-0.08600000000000001
1746648931873325420,-0.056
1746648931881012959,-0.061
1746648931888700498,-0.073
1746648931896388037,-0.07100000000000001
1746648931904075576,-0.078
1746648931911763115,0.07100000000000001
1746648931919450654,0.507
1746648931927138193,0.769
1746648931934825732,0.382
1746648931942513271,-0.226
1746648931950200810,-0.399
1746648931957888349,-0.251
1746648931965575888,-0.199
1746648931973263427,-0.194
1746648931980950966,-0.101
1746648931988638505,-0.054
1746648931996326044,-0.07100000000000001
1746648932004013583,-0.061
1746648932011701122,-0.036000000000000004
1746648932019388661,-0.034
1746648932027076200,-0.034
1746648932034763739,-0.027
1746648932042451278,-0.029
1746648932050138817,-0.022
1746648932057826356,-0.009000000000000001
1746648932065513895,-0.012
1746648932073201434,-0.017
1746648932080888973,-0.009000000000000001
1746648932088576512,0.004
1746648932096264051,0.014
1746648932103951590,0.019
1746648932111639129,0.029
1746648932119326668,0.034
1746648932127014207,0.039
1746648932134701746,0.066
1746648932142389285,0.093
1746648932150076824,0.088
1746648932157764363,0.081
1746648932165451902,0.098
1746648932173139441,0.115
1746648932180826980,0.11
1746648932188514519,0.10300000000000001
1746648932196202058,0.098
1746648932203889597,0.083
1746648932211577204,0.064
1746648932219264743,0.036000000000000004
1746648932226952282,-0.004
1746648932234639821,-0.051000000000000004
1746648932242327360,-0.101
1746648932250014899,-0.138
1746648932257702438,-0.145
1746648932265389977,-0.145
1746648932273077516,-0.15
1746648932280765055,-0.145
1746648932288452594,-0.147
1746648932296140133,-0.155
1746648932303827672,-0.152
1746648932311515211,-0.14
1746648932319202750,-0.138
1746648932326890289,-0.14
1746648932334577828,-0.135
1746648932342265367,-0.128
1746648932349952906,-0.128
1746648932357640445,-0.125
1746648932365327984,-0.135
1746648932373015523,-0.145
1746648932380703062,-0.14
1746648932388390601,-0.133
1746648932396078140,-0.14
1746648932403765679,-0.145
1746648932411453218,-0.14300000000000002
1746648932419140757,-0.147
1746648932426828296,-0.15
1746648932434515835,-0.145
1746648932442203374,-0.145
1746648932449890913,-0.15
1746648932457578452,-0.15
1746648932465265991,-0.15
1746648932472953530,-0.14300000000000002
1746648932480641069,-0.125
1746648932488328608,-0.115
1746648932496016147,-0.11
1746648932503703686,-0.098
1746648932511391225,-0.10300000000000001
1746648932519078764,-0.13
1746648932526766303,-0.145
1746648932534453842,-0.138
1746648932542141381,-0.138
1746648932549828920,-0.138
1746648932557516459,-0.128
1746648932565203998,-0.133
1746648932572891537,-0.147
1746648932580579076,-0.16
1746648932588266615,-0.145
1746648932595954154,0.066
1746648932603641693,0.505
1746648932611329232,0.65
1746648932619016771,0.135
1746648932626704310,-0.438
1746648932634391849,-0.47800000000000004
1746648932642079388,-0.31
1746648932649766927,-0.298
1746648932657454466,-0.263
1746648932665142005,-0.147
1746648932672829544,-0.11800000000000001
1746648932680517083,-0.138
1746648932688204622,-0.11
1746648932695892161,-0.088
1746648932703579700,-0.093
1746648932711267239,-0.091
1746648932718954778,-0.081
1746648932726642317,-0.076
1746648932734329856,-0.076
1746648932742017395,-0.064
1746648932749704934,-0.041
1746648932757392473,-0.034
1746648932765080012,-0.034
1746648932772767619,-0.029,79,706
1746648932780455158,-0.022,,694
1746648932788142697,-0.012
1746648932795830236,0.002
1746648932803517775,0.022
1746648932811205314,0.032
1746648932818892853,0.036000000000000004
1746648932826580392,0.046
1746648932834267931,0.061
1746648932841955470,0.081
1746648932849643009,0.091
1746648932857330548,0.088
1746648932865018087,0.08600000000000001
1746648932872705626,0.096
1746648932880393165,0.093
1746648932888080704,0.066
1746648932895768243,0.029
1746648932903455782,-0.007
1746648932911143321,-0.049
1746648932918830860,-0.093
1746648932926518399,-0.13
1746648932934205938,-0.157
1746648932941893477,-0.165
1746648932949581016,-0.165
1746648932957268555,-0.167
1746648932964956094,-0.17500000000000002
1746648932972643633,-0.17500000000000002
1746648932980331172,-0.162
1746648932988018711,-0.157
1746648932995706250,-0.147
1746648933003393789,-0.135
1746648933011081328,-0.138
1746648933018768867,-0.14
1746648933026456406,-0.133
1746648933034143945,-0.133
1746648933041831484,-0.133
1746648933049519023,-0.13
1746648933057206562,-0.135
1746648933064894101,-0.14300000000000002
1746648933072581640,-0.138
1746648933080269179,-0.13
1746648933087956718,-0.125
1746648933095644257,-0.125
1746648933103331796,-0.133
1746648933111019335,-0.133
1746648933118706874,-0.125
1746648933126394413,-0.123
1746648933134081952,-0.128
1746648933141769491,-0.123
1746648933149457030,-0.11
1746648933157144569,-0.098
1746648933164832108,-0.08600000000000001
1746648933172519647,-0.073
1746648933180207186,-0.073
1746648933187894725,-0.088
1746648933195582264,-0.093
1746648933203269803,-0.088
1746648933210957342,-0.101
1746648933218644881,-0.106
1746648933226332420,-0.093
1746648933234019959,-0.091
1746648933241707498,-0.096
1746648933249395037,-0.098
1746648933257082576,-0.11
1746648933264770115,-0.027
1746648933272457654,0.327
1746648933280145193,0.712
1746648933287832732,0.527
1746648933295520271,-0.14
1746648933303207810,-0.488
1746648933310895349,-0.335
1746648933318582888,-0.216
1746648933326270427,-0.231
1746648933333958038,-0.152,80,707
1746648933341645577,-0.07100000000000001
1746648933349333116,-0.081
1746648933357020655,-0.076
1746648933364708194,-0.044
1746648933372395733,-0.039
1746648933380083272,-0.041
1746648933387770811,-0.032
1746648933395458350,-0.019
1746648933403145889,-0.017
1746648933410833428,-0.017
1746648933418520967,-0.012
1746648933426208506,-0.007
1746648933433896045,0.002
1746648933441583584,0.017
1746648933449271123,0.022
1746648933456958662,0.022
1746648933464646201,0.029
1746648933472333740,0.044
1746648933480021279,0.059000000000000004
1746648933487708818,0.076
1746648933495396357,0.081
1746648933503083896,0.088
1746648933510771435,0.106
1746648933518458974,0.115
1746648933526146513,0.125
1746648933533834052,0.13
1746648933541521591,0.13
1746648933549209130,0.133
1746648933556896669,0.123
1746648933564584208,0.098
1746648933572271747,0.064
1746648933579959286,0.024
1746648933587646825,-0.022
1746648933595334364,-0.066
1746648933603021903,-0.093
1746648933610709442,-0.106
1746648933618396981,-0.12
1746648933626084520,-0.128
1746648933633772059,-0.128
1746648933641459598,-0.128
1746648933649147137,-0.125
1746648933656834676,-0.11
1746648933664522215,-0.101
1746648933672209754,-0.106
1746648933679897293,-0.106
1746648933687584832,-0.10300000000000001
1746648933695272371,-0.106
1746648933702959910,-0.101
1746648933710647449,-0.08600000000000001
1746648933718334988,-0.091
1746648933726022527,-0.106
1746648933733710066,-0.10300000000000001
1746648933741397605,-0.096
1746648933749085144,-0.101
1746648933756772683,-0.106
1746648933764460222,-0.106
1746648933772147761,-0.106
1746648933779835300,-0.10300000000000001
1746648933787522839,-0.10300000000000001
1746648933795210378,-0.108
1746648933802897917,-0.108
1746648933810585456,-0.106
1746648933818272995,-0.113
1746648933825960534,-0.113
1746648933833648073,-0.091
1746648933841335612,-0.078
1746648933849023151,-0.076
1746648933856710690,-0.059000000000000004
1746648933864398229,-0.051000000000000004
1746648933872085768,-0.07100000000000001
1746648933879773307,-0.078
1746648933887460846,-0.076
1746648933895148453,-0.091
1746648933902835992,-0.093
1746648933910523531,-0.078
1746648933918211070,-0.081
1746648933925898609,-0.08600000000000001
1746648933933586148,-0.081
1746648933941273687,-0.108
1746648933948961226,-0.10300000000000001
1746648933956648765,0.17
1746648933964336304,0.648
1746648933972023843,0.776
1746648933979711382,0.261
1746648933987398921,-0.3
1746648933995086460,-0.357
1746648934002773999,-0.20400000000000001
1746648934010461538,-0.20400000000000001
1746648934018149077,-0.189
1746648934025836616,-0.101
1746648934033524155,-0.08600000000000001
1746648934041211694,-0.098
1746648934048899233,-0.081
1746648934056586772,-0.07100000000000001
1746648934064274311,-0.07100000000000001
1746648934071961850,-0.061
1746648934079649389,-0.059000000000000004
1746648934087336928,-0.064
1746648934095024467,-0.051000000000000004
1746648934102712006,-0.034
1746648934110399545,-0.036000000000000004
1746648934118087084,-0.034
1746648934125774623,-0.027
1746648934133462162,-0.022
1746648934141149701,-0.017
1746648934148837240,-0.002
1746648934156524779,0.012
1746648934164212318,0.014
1746648934171899857,0.019
1746648934179587396,0.041
1746648934187274935,0.056
1746648934194962474,0.054
1746648934202650013,0.064
1746648934210337552,0.081
1746648934218025091,0.08600000000000001
1746648934225712630,0.08600000000000001
1746648934233400169,0.093
1746648934241087708,0.096
1746648934248775247,0.073
1746648934256462786,0.041
1746648934264150325,0.014
1746648934271837864,-0.024
1746648934279525403,-0.066
1746648934287212942,-0.093
1746648934294900481,-0.115
1746648934302588020,-0.133
1746648934310275559,-0.133
1746648934317963098,-0.125
1746648934325650637,-0.13
1746648934333338176,-0.128
1746648934341025715,-0.125
1746648934348713254,-0.125
1746648934356400793,-0.12
1746648934364088332,-0.123
1746648934371775871,-0.128
1746648934379463410,-0.12
1746648934387150949,-0.11800000000000001
1746648934394838488,-0.11800000000000001
1746648934402526027,-0.113
1746648934410213566,-0.11
1746648934417901105,-0.11
1746648934425588644,-0.123
1746648934433276183,-0.14
1746648934440963722,-0.138
1746648934448651261,-0.125
1746648934456338868,-0.11800000000000001,80,683
1746648934464026268,-0.12
1746648934471713668,-0.128
1746648934479401068,-0.128
1746648934487088468,-0.11800000000000001
1746648934494775868,-0.12
1746648934502463268,-0.133
1746648934510150668,-0.128
1746648934517838068,-0.12
1746648934525525468,-0.11
1746648934533212868,-0.098
1746648934540900268,-0.08600000000000001
1746648934548587668,-0.078
1746648934556275068,-0.081
1746648934563962468,-0.096
1746648934571649868,-0.106
1746648934579337268,-0.115
1746648934587024668,-0.11800000000000001
1746648934594712068,-0.108
1746648934602399468,-0.108
1746648934610086868,-0.12
1746648934617774268,-0.12
1746648934625461668,-0.133
1746648934633149068,-0.147
1746648934640836468,0.017
1746648934648523868,0.463
1746648934656211268,0.759
1746648934663898668,0.424
1746648934671586068,-0.199
1746648934679273468,-0.421
1746648934686960868,-0.28600000000000003
1746648934694648268,-0.231
1746648934702335668,-0.224
1746648934710023068,-0.14
1746648934717710468,-0.101
1746648934725397868,-0.11800000000000001
1746648934733085268,-0.108
1746648934740772668,-0.096
1746648934748460068,-0.093
1746648934756147468,-0.083
1746648934763834868,-0.073
1746648934771522268,-0.069
1746648934779209668,-0.066
1746648934786897068,-0.059000000000000004
1746648934794584468,-0.051000000000000004
1746648934802271868,-0.049
1746648934809959268,-0.046
1746648934817646668,-0.034
1746648934825334068,-0.022
1746648934833021468,-0.019
1746648934840708868,-0.012
1746648934848396268,-0.002
1746648934856083668,0.009000000000000001
1746648934863771068,0.022
1746648934871458468,0.032
1746648934879145868,0.044
1746648934886833268,0.056
1746648934894520668,0.069
1746648934902208068,0.073
1746648934909895468,0.069
1746648934917582868,0.069
1746648934925270268,0.07100000000000001
1746648934932957668,0.064
1746648934940645068,0.036000000000000004
1746648934948332468,-0.002
1746648934956019868,-0.039
1746648934963707268,-0.073
1746648934971394668,-0.11
1746648934979082068,-0.135
1746648934986769468,-0.14300000000000002
1746648934994456868,-0.152
1746648935002144268,-0.155
1746648935009831668,-0.15
1746648935017519113,-0.157
1746648935025206722,-0.155
1746648935032894331,-0.147
1746648935040581940,-0.147
1746648935048269549,-0.14
1746648935055957158,-0.13
1746648935063644767,-0.14
1746648935071332376,-0.147
1746648935079019985,-0.145
1746648935086707594,-0.15
1746648935094395203,-0.145
1746648935102082812,-0.14
1746648935109770421,-0.147
1746648935117458030,-0.155
1746648935125145639,-0.15
1746648935132833248,-0.138
1746648935140520857,-0.138
1746648935148208466,-0.14300000000000002
1746648935155896075,-0.14
1746648935163583684,-0.138
1746648935171271293,-0.147
1746648935178958902,-0.147
1746648935186646511,-0.135
1746648935194334120,-0.14
1746648935202021729,-0.14
1746648935209709338,-0.123
1746648935217396947,-0.106
1746648935225084556,-0.101
1746648935232772165,-0.091
1746648935240459774,-0.098
1746648935248147383,-0.115
1746648935255834992,-0.123
1746648935263522601,-0.115
1746648935271210210,-0.113
1746648935278897819,-0.12
1746648935286585428,-0.11800000000000001
1746648935294273037,-0.108
1746648935301960646,-0.115
1746648935309648255,-0.135
1746648935317335864,-0.096
1746648935325023473,0.165
1746648935332711082,0.596
1746648935340398691,0.623
1746648935348086300,0.014
1746648935355773909,-0.485
1746648935363461518,-0.41400000000000003
1746648935371149127,-0.253
1746648935378836736,-0.271
1746648935386524345,-0.214
1746648935394211954,-0.096
1746648935401899563,-0.081
1746648935409587172,-0.091
1746648935417274781,-0.069
1746648935424962390,-0.069
1746648935432649999,-0.07100000000000001
1746648935440337608,-0.054
1746648935448025217,-0.049
1746648935455712826,-0.049
1746648935463400435,-0.039
1746648935471088044,-0.032
1746648935478775653,-0.024
1746648935486463262,-0.017
1746648935494150871,-0.009000000000000001
1746648935501838480,0.004
1746648935509526089,0.014
1746648935517213698,0.014
1746648935524901307,0.017
1746648935532588916,0.034
1746648935540276525,0.054
1746648935547964134,0.066
1746648935555651743,0.078
1746648935563339352,0.088
1746648935571026961,0.093
1746648935578714615,0.098,82,673
1746648935586402224,0.101,,688
1746648935594089833,0.108
1746648935601777442,0.108
1746648935609465051,0.096
1746648935617152660,0.081
1746648935624840269,0.049
1746648935632527878,0.0
1746648935640215487,-0.049
1746648935647903096,-0.088
1746648935655590705,-0.11800000000000001
1746648935663278314,-0.138
1746648935670965923,-0.145
1746648935678653532,-0.152
1746648935686341141,-0.16
1746648935694028750,-0.155
1746648935701716359,-0.145
1746648935709403968,-0.14
1746648935717091577,-0.135
1746648935724779186,-0.128
1746648935732466795,-0.128
1746648935740154404,-0.125
1746648935747842013,-0.115
1746648935755529622,-0.115
1746648935763217231,-0.11800000000000001
1746648935770904840,-0.115
1746648935778592449,-0.115
1746648935786280058,-0.11800000000000001
1746648935793967667,-0.115
1746648935801655276,-0.115
1746648935809342885,-0.115
1746648935817030494,-0.113
1746648935824718103,-0.106
1746648935832405712,-0.11
1746648935840093321,-0.123
1746648935847780930,-0.123
1746648935855468539,-0.11800000000000001
1746648935863156148,-0.125
1746648935870843757,-0.128
1746648935878531366,-0.108
1746648935886218975,-0.091
1746648935893906584,-0.08600000000000001
1746648935901594193,-0.069
1746648935909281802,-0.056
1746648935916969411,-0.073
1746648935924657020,-0.088
1746648935932344629,-0.08600000000000001
1746648935940032238,-0.083
1746648935947719847,-0.076
1746648935955407456,-0.07100000000000001
1746648935963095065,-0.07100000000000001
1746648935970782674,-0.078
1746648935978470283,-0.10300000000000001
1746648935986157892,-0.128
1746648935993845501,0.0
1746648936001533110,0.40900000000000003
1746648936009220719,0.766
1746648936016908328,0.525
1746648936024595937,-0.14
1746648936032283546,-0.433
1746648936039971155,-0.263
1746648936047658764,-0.17500000000000002
1746648936055346373,-0.194
1746648936063033982,-0.113
1746648936070721591,-0.056
1746648936078409200,-0.081
1746648936086096809,-0.073
1746648936093784418,-0.046
1746648936101472027,-0.041
1746648936109159636,-0.036000000000000004
1746648936116847245,-0.029
1746648936124534854,-0.032
1746648936132222463,-0.024
1746648936139910117,-0.017
1746648936147597656,-0.017
1746648936155285195,-0.009000000000000001
1746648936162972734,-0.002
1746648936170660273,0.0
1746648936178347812,0.009000000000000001
1746648936186035351,0.022
1746648936193722890,0.022
1746648936201410429,0.027
1746648936209097968,0.044
1746648936216785507,0.056
1746648936224473046,0.069
1746648936232160585,0.083
1746648936239848124,0.088
1746648936247535663,0.088
1746648936255223202,0.098
1746648936262910741,0.108
1746648936270598280,0.12
1746648936278285819,0.11800000000000001
1746648936285973358,0.098
1746648936293660897,0.08600000000000001
1746648936301348436,0.064
1746648936309035975,0.019
1746648936316723514,-0.024
1746648936324411053,-0.056
1746648936332098592,-0.076
1746648936339786131,-0.096
1746648936347473670,-0.11
1746648936355161209,-0.11
1746648936362848748,-0.10300000000000001
1746648936370536287,-0.10300000000000001
1746648936378223826,-0.106
1746648936385911365,-0.098
1746648936393598904,-0.091
1746648936401286443,-0.091
1746648936408973982,-0.091
1746648936416661521,-0.088
1746648936424349060,-0.091
1746648936432036599,-0.088
1746648936439724138,-0.08600000000000001
1746648936447411677,-0.093
1746648936455099216,-0.098
1746648936462786755,-0.091
1746648936470474294,-0.08600000000000001
1746648936478161833,-0.088
1746648936485849372,-0.091
1746648936493536911,-0.088
1746648936501224450,-0.083
1746648936508911989,-0.08600000000000001
1746648936516599528,-0.081
1746648936524287067,-0.076
1746648936531974606,-0.078
1746648936539662145,-0.081
1746648936547349684,-0.083
1746648936555037223,-0.088
1746648936562724762,-0.093
1746648936570412301,-0.083
1746648936578099840,-0.066
1746648936585787379,-0.056
1746648936593474918,-0.051000000000000004
1746648936601162457,-0.041
1746648936608849996,-0.034
1746648936616537535,-0.046
1746648936624225074,-0.061
1746648936631912613,-0.069
1746648936639600152,-0.064
1746648936647287691,-0.059000000000000004
1746648936654975230,-0.066
1746648936662662769,-0.073
1746648936670350308,-0.069
1746648936678037847,-0.081
1746648936685725386,-0.106
1746648936693412925,0.007
1746648936701100532,0.404,82,687
1746648936708788071,0.781
1746648936716475610,0.584
1746648936724163149,-0.059000000000000004
1746648936731850688,-0.384
1746648936739538227,-0.251
1746648936747225766,-0.165
1746648936754913305,-0.189
1746648936762600844,-0.11800000000000001
1746648936770288383,-0.059000000000000004
1746648936777975922,-0.073
1746648936785663461,-0.073
1746648936793351000,0.08600000000000001
1746648936801038539,0.998
1746648936808726078,2.0260000000000002
1746648936816413617,1.356
1746648936824101156,0.115
1746648936831788695,0.133
1746648936839476234,0.3
1746648936847163773,-0.029
1746648936854851312,-0.081
1746648936862538851,0.088
1746648936870226390,0.31
1746648936877913929,1.087
1746648936885601468,1.822
1746648936893289007,1.42
1746648936900976546,0.8160000000000001
1746648936908664085,0.727
1746648936916351624,0.355
1746648936924039163,0.041
1746648936931726702,0.549
1746648936939414241,1.592
1746648936947101780,1.795
1746648936954789319,0.65
1746648936962476858,-0.041
1746648936970164397,0.155
1746648936977851936,0.036000000000000004
1746648936985539475,-0.221
1746648936993227014,-0.17
1746648937000914553,-0.167
1746648937008602092,-0.261
1746648937016289631,-0.244
1746648937023977170,-0.258
1746648937031664709,-0.34500000000000003
1746648937039352248,-0.355
1746648937047039787,-0.374
1746648937054727326,-0.441
1746648937062414865,-0.443
1746648937070102404,-0.421
1746648937077789943,-0.436
1746648937085477482,-0.438
1746648937093165021,-0.41600000000000004
1746648937100852560,-0.41100000000000003
1746648937108540099,-0.419
1746648937116227638,-0.41100000000000003
1746648937123915177,-0.396
1746648937131602716,-0.389
1746648937139290255,-0.369
1746648937146977794,-0.263
1746648937154665333,-0.17200000000000001
1746648937162352872,-0.251
1746648937170040411,-0.318
1746648937177727950,-0.23900000000000002
1746648937185415489,-0.23600000000000002
1746648937193103028,-0.325
1746648937200790567,-0.325
1746648937208478106,-0.3
1746648937216165645,-0.318
1746648937223853184,-0.315
1746648937231540723,-0.308
1746648937239228262,-0.31
1746648937246915801,-0.303
1746648937254603340,-0.295
1746648937262290947,-0.293
1746648937269978277,-0.29
1746648937277665607,-0.273
1746648937285352937,-0.249
1746648937293040267,-0.244
1746648937300727597,-0.244
1746648937308414927,-0.216
1746648937316102257,-0.20700000000000002
1746648937323789587,-0.234
1746648937331476917,-0.246
1746648937339164247,-0.226
1746648937346851577,-0.216
1746648937354538907,-0.216
1746648937362226237,-0.212
1746648937369913567,-0.20700000000000002
1746648937377600897,-0.221
1746648937385288227,-0.244
1746648937392975557,-0.155
1746648937400662887,0.194
1746648937408350217,0.5690000000000001
1746648937416037547,0.379
1746648937423724877,-0.28800000000000003
1746648937431412207,-0.611
1746648937439099537,-0.426
1746648937446786867,-0.308
1746648937454474197,-0.327
1746648937462161527,-0.234
1746648937469848857,-0.138
1746648937477536187,-0.145
1746648937485223517,-0.15
1746648937492910847,-0.133
1746648937500598177,-0.123
1746648937508285507,-0.108
1746648937515972837,-0.096
1746648937523660167,-0.098
1746648937531347497,-0.088
1746648937539034827,-0.078
1746648937546722157,-0.078
1746648937554409487,-0.073
1746648937562096817,-0.066
1746648937569784147,-0.056
1746648937577471477,-0.041
1746648937585158807,-0.027
1746648937592846137,-0.022
1746648937600533467,-0.019
1746648937608220797,-0.002
1746648937615908127,0.017
1746648937623595457,0.012
1746648937631282787,0.014
1746648937638970117,0.036000000000000004
1746648937646657447,0.049
1746648937654344777,0.044
1746648937662032107,0.046
1746648937669719437,0.056
1746648937677406767,0.056
1746648937685094097,0.046
1746648937692781427,0.034
1746648937700468757,0.004
1746648937708156087,-0.036000000000000004
1746648937715843417,-0.076
1746648937723530747,-0.106
1746648937731218077,-0.133
1746648937738905407,-0.157
1746648937746592737,-0.165
1746648937754280067,-0.165
1746648937761967397,-0.17
1746648937769654727,-0.17
1746648937777342057,-0.16
1746648937785029387,-0.15
1746648937792716717,-0.15
1746648937800404047,-0.15
1746648937808091377,-0.147
1746648937815778707,-0.14
1746648937823466105,-0.13,84,681
1746648937831153714,-0.128,,674
1746648937838841323,-0.138,,700
1746648937846528932,-0.138
1746648937854216541,-0.138
1746648937861904150,-0.147
1746648937869591759,-0.14300000000000002
1746648937877279368,-0.133
1746648937884966977,-0.138
1746648937892654586,-0.138
1746648937900342195,-0.128
1746648937908029804,-0.128
1746648937915717413,-0.135
1746648937923405022,-0.14
1746648937931092631,-0.138
1746648937938780240,-0.125
1746648937946467849,-0.11800000000000001
1746648937954155458,-0.128
1746648937961843067,-0.13
1746648937969530676,-0.11800000000000001
1746648937977218285,-0.12
1746648937984905894,-0.125
1746648937992593503,-0.128
1746648938000281112,-0.123
1746648938007968721,-0.10300000000000001
1746648938015656330,-0.08600000000000001
1746648938023343939,-0.078
1746648938031031548,-0.076
1746648938038719157,-0.081
1746648938046406766,-0.096
1746648938054094375,-0.10300000000000001
1746648938061781984,-0.098
1746648938069469593,-0.10300000000000001
1746648938077157202,-0.106
1746648938084844811,-0.101
1746648938092532420,-0.106
1746648938100220029,-0.115
1746648938107907638,-0.13
1746648938115595247,-0.13
1746648938123282856,0.061
1746648938130970465,0.51
1746648938138658074,0.734
1746648938146345683,0.28300000000000003
1746648938154033292,-0.352
1746648938161720901,-0.446
1746648938169408510,-0.229
1746648938177096119,-0.202
1746648938184783728,-0.209
1746648938192471337,-0.11
1746648938200158946,-0.091
1746648938207846555,-0.11800000000000001
1746648938215534164,-0.091
1746648938223221773,-0.073
1746648938230909382,-0.083
1746648938238596991,-0.069
1746648938246284600,-0.051000000000000004
1746648938253972209,-0.056
1746648938261659818,-0.064
1746648938269347427,-0.059000000000000004
1746648938277035036,-0.051000000000000004
1746648938284722645,-0.044
1746648938292410254,-0.032
1746648938300097863,-0.024
1746648938307785472,-0.024
1746648938315473081,-0.017
1746648938323160690,-0.007
1746648938330848299,-0.007
1746648938338535908,0.0
1746648938346223517,0.012
1746648938353911126,0.032
1746648938361598735,0.049
1746648938369286344,0.044
1746648938376973953,0.044
1746648938384661607,0.054,84
1746648938392349216,0.044
1746648938400036825,0.032
1746648938407724434,0.056
1746648938415412043,0.073
1746648938423099652,0.034
1746648938430787261,-0.014
1746648938438474870,-0.046
1746648938446162479,-0.081
1746648938453850088,-0.113
1746648938461537697,-0.133
1746648938469225306,-0.14
1746648938476912915,-0.15
1746648938484600524,-0.17
1746648938492288133,-0.17200000000000001
1746648938499975742,-0.162
1746648938507663351,-0.152
1746648938515350960,-0.152
1746648938523038569,-0.145
1746648938530726178,-0.14
1746648938538413787,-0.14
1746648938546101396,-0.133
1746648938553789005,-0.128
1746648938561476614,-0.135
1746648938569164223,-0.16
1746648938576851832,-0.17200000000000001
1746648938584539441,-0.15
1746648938592227050,-0.14
1746648938599914659,-0.15
1746648938607602268,-0.147
1746648938615289877,-0.145
1746648938622977486,-0.14
1746648938630665095,-0.135
1746648938638352704,-0.14
1746648938646040313,-0.145
1746648938653727922,-0.14
1746648938661415531,-0.135
1746648938669103140,-0.14
1746648938676790749,-0.155
1746648938684478358,-0.155
1746648938692165967,-0.125
1746648938699853576,-0.106
1746648938707541185,-0.11800000000000001
1746648938715228794,-0.125
1746648938722916403,-0.11800000000000001
1746648938730604012,-0.101
1746648938738291621,-0.083
1746648938745979230,-0.091
1746648938753666839,-0.106
1746648938761354448,-0.12
1746648938769042057,-0.135
1746648938776729666,-0.123
1746648938784417275,-0.096
1746648938792104884,-0.106
1746648938799792493,-0.128
1746648938807480102,-0.138
1746648938815167711,-0.098
1746648938822855320,0.113
1746648938830542929,0.515
1746648938838230538,0.66
1746648938845918147,0.115
1746648938853605756,-0.554
1746648938861293365,-0.584
1746648938868980974,-0.318
1746648938876668583,-0.293
1746648938884356192,-0.276
1746648938892043801,-0.135
1746648938899731410,-0.078
1746648938907419019,-0.078
1746648938915106628,-0.064
1746648938922794237,-0.073
1746648938930481846,-0.078
1746648938938169455,-0.044
1746648938945857109,-0.007
1746648938953544300,-0.024
1746648938961231491,-0.046
1746648938968918682,-0.034
1746648938976605873,-0.022
1746648938984293064,-0.017
1746648938991980255,-0.007
1746648938999667446,0.004
1746648939007354637,0.012
1746648939015041828,0.024
1746648939022729019,0.036000000000000004
1746648939030416210,0.036000000000000004
1746648939038103401,0.041
1746648939045790592,0.08600000000000001
1746648939053477783,0.12
1746648939061164974,0.106
1746648939068852165,0.08600000000000001
1746648939076539356,0.101
1746648939084226547,0.113
1746648939091913738,0.106
1746648939099600929,0.11
1746648939107288120,0.101
1746648939114975311,0.081
1746648939122662502,0.051000000000000004
1746648939130349693,-0.017
1746648939138036884,-0.083
1746648939145724075,-0.113
1746648939153411266,-0.11800000000000001
1746648939161098457,-0.14
1746648939168785648,-0.194
1746648939176472839,-0.212
1746648939184160030,-0.197
1746648939191847221,-0.184
1746648939199534412,-0.162
1746648939207221603,-0.167
1746648939214908794,-0.189
1746648939222595985,-0.17
1746648939230283176,-0.13
1746648939237970367,-0.11800000000000001
1746648939245657558,-0.14
1746648939253344749,-0.162
1746648939261031940,-0.147
1746648939268719131,-0.12
1746648939276406322,-0.123
1746648939284093513,-0.13
1746648939291780704,-0.13
1746648939299467895,-0.152
1746648939307155086,-0.16
1746648939314842277,-0.135
1746648939322529468,-0.147
1746648939330216659,-0.16
1746648939337903850,-0.13
1746648939345591041,-0.13
1746648939353278232,-0.152
1746648939360965423,-0.15
1746648939368652614,-0.14300000000000002
1746648939376339805,-0.14300000000000002
1746648939384026996,-0.135
1746648939391714187,-0.13
1746648939399401378,-0.12
1746648939407088569,-0.113
1746648939414775760,-0.113
1746648939422462951,-0.12
1746648939430150142,-0.125
1746648939437837333,-0.123
1746648939445524524,-0.11800000000000001
1746648939453211715,-0.11800000000000001
1746648939460898906,-0.12
1746648939468586097,-0.123
1746648939476273288,-0.128
1746648939483960479,-0.064
1746648939491647670,0.241
1746648939499334861,0.641
1746648939507022089,0.535,85,698
1746648939514709698,-0.17200000000000001,,727
1746648939522397307,-0.643
1746648939530084916,-0.47500000000000003
1746648939537772525,-0.273
1746648939545460134,-0.28600000000000003
1746648939553147743,-0.20700000000000002
1746648939560835352,-0.078
1746648939568522961,-0.073
1746648939576210570,-0.076
1746648939583898179,-0.046
1746648939591585788,-0.041
1746648939599273397,-0.036000000000000004
1746648939606961006,-0.029
1746648939614648615,-0.032
1746648939622336224,-0.022
1746648939630023833,-0.009000000000000001
1746648939637711442,-0.009000000000000001
1746648939645399051,-0.012
1746648939653086660,-0.002
1746648939660774269,0.009000000000000001
1746648939668461878,0.012
1746648939676149487,0.019
1746648939683837096,0.034
1746648939691524705,0.046
1746648939699212314,0.054
1746648939706899923,0.059000000000000004
1746648939714587532,0.078
1746648939722275141,0.091
1746648939729962750,0.08600000000000001
1746648939737650359,0.08600000000000001
1746648939745337968,0.098
1746648939753025577,0.106
1746648939760713186,0.106
1746648939768400795,0.10300000000000001
1746648939776088404,0.091
1746648939783776013,0.073
1746648939791463622,0.044
1746648939799151231,0.0
1746648939806838840,-0.049
1746648939814526449,-0.091
1746648939822214058,-0.113
1746648939829901667,-0.123
1746648939837589276,-0.14300000000000002
1746648939845276885,-0.152
1746648939852964494,-0.145
1746648939860652103,-0.133
1746648939868339712,-0.125
1746648939876027321,-0.13
1746648939883714930,-0.13
1746648939891402539,-0.115
1746648939899090148,-0.10300000000000001
1746648939906777757,-0.106
1746648939914465366,-0.098
1746648939922152975,-0.093
1746648939929840584,-0.10300000000000001
1746648939937528193,-0.115
1746648939945215802,-0.10300000000000001
1746648939952903411,-0.091
1746648939960591020,-0.101
1746648939968278629,-0.12
1746648939975966238,-0.11800000000000001
1746648939983653847,-0.096
1746648939991341456,-0.096
1746648939999029065,-0.11
1746648940006716674,-0.11
1746648940014404283,-0.101
1746648940022091892,-0.10300000000000001
1746648940029779501,-0.101
1746648940037467110,-0.101
1746648940045154719,-0.108
1746648940052842328,-0.108
1746648940060529937,-0.101
1746648940068217595,-0.101
1746648940075905204,-0.096
1746648940083592813,-0.093
1746648940091280422,-0.096
1746648940098968031,-0.083
1746648940106655640,-0.059000000000000004
1746648940114343249,-0.061
1746648940122030858,-0.073
1746648940129718467,-0.069
1746648940137406076,-0.069
1746648940145093685,-0.083
1746648940152781294,-0.08600000000000001
1746648940160468903,-0.073
1746648940168156512,-0.07100000000000001
1746648940175844121,-0.081
1746648940183531730,-0.113
1746648940191219339,-0.061
1746648940198906948,0.273
1746648940206594557,0.724
1746648940214282166,0.68
1746648940221969775,0.029
1746648940229657384,-0.448
1746648940237344993,-0.323
1746648940245032602,-0.147
1746648940252720211,-0.189
1746648940260407820,-0.147
1746648940268095429,-0.051000000000000004
1746648940275783038,-0.054
1746648940283470647,-0.061
1746648940291158256,-0.034
1746648940298845865,-0.029
1746648940306533474,-0.027
1746648940314221083,-0.014
1746648940321908692,-0.009000000000000001
1746648940329596301,-0.012
1746648940337283910,-0.014
1746648940344971519,-0.012
1746648940352659128,-0.004
1746648940360346737,0.004
1746648940368034346,0.009000000000000001
1746648940375721955,0.012
1746648940383409564,0.017
1746648940391097173,0.027
1746648940398784782,0.036000000000000004
1746648940406472391,0.046
1746648940414160000,0.059000000000000004
1746648940421847609,0.064
1746648940429535218,0.061
1746648940437222827,0.07100000000000001
1746648940444910436,0.093
1746648940452598045,0.096
1746648940460285654,0.098
1746648940467973263,0.113
1746648940475660872,0.12
1746648940483348481,0.11
1746648940491036090,0.096
1746648940498723699,0.076
1746648940506411308,0.051000000000000004
1746648940514098917,0.022
1746648940521786526,-0.009000000000000001
1746648940529474135,-0.039
1746648940537161744,-0.054
1746648940544849353,-0.061
1746648940552536962,-0.064
1746648940560224571,-0.056
1746648940567912180,-0.046
1746648940575599789,-0.051000000000000004
1746648940583287398,-0.056
1746648940590975007,-0.049
1746648940598662616,-0.039
1746648940606350225,-0.036000000000000004
1746648940614037834,-0.046
1746648940621725443,-0.041
1746648940629413097,-0.024,85,698
1746648940637100706,-0.022
1746648940644788315,-0.032
1746648940652475924,-0.032
1746648940660163533,-0.022
1746648940667851142,-0.029
1746648940675538751,-0.034
1746648940683226360,-0.027
1746648940690913969,-0.019
1746648940698601578,-0.022
1746648940706289187,-0.024
1746648940713976796,-0.022
1746648940721664405,-0.017
1746648940729352014,-0.007
1746648940737039623,-0.004
1746648940744727232,-0.004
1746648940752414841,-0.002
1746648940760102450,-0.009000000000000001
1746648940767790059,-0.017
1746648940775477668,-0.007
1746648940783165277,-0.002
1746648940790852886,-0.002
1746648940798540495,0.009000000000000001
1746648940806228104,0.029
1746648940813915713,0.032
1746648940821603322,0.036000000000000004
1746648940829290931,0.044
1746648940836978540,0.027
1746648940844666149,0.017
1746648940852353758,0.022
1746648940860041367,0.017
1746648940867728976,0.022
1746648940875416585,0.032
1746648940883104194,0.024
1746648940890791803,0.014
1746648940898479412,-0.002
1746648940906167021,-0.004
1746648940913854630,0.197
1746648940921542239,0.663
1746648940929229848,0.885
1746648940936917457,0.426
1746648940944605066,-0.214
1746648940952292675,-0.315
1746648940959980284,-0.10300000000000001
1746648940967667893,-0.076
1746648940975355502,-0.081
1746648940983043111,0.014
1746648940990730720,0.039
1746648940998418329,0.009000000000000001
1746648941006105938,0.029
1746648941013793547,0.054
1746648941021481156,0.051000000000000004
1746648941029168765,0.051000000000000004
1746648941036856374,0.059000000000000004
1746648941044543983,0.061
1746648941052231592,0.061
1746648941059919201,0.056
1746648941067606810,0.059000000000000004
1746648941075294419,0.069
1746648941082982028,0.073
1746648941090669637,0.073
1746648941098357246,0.081
1746648941106044855,0.08600000000000001
1746648941113732464,0.091
1746648941121420073,0.101
1746648941129107682,0.106
1746648941136795291,0.106
1746648941144482900,0.113
1746648941152170509,0.123
1746648941159858118,0.13
1746648941167545727,0.135
1746648941175233336,0.138
1746648941182920945,0.135
1746648941190608599,0.133
1746648941198296208,0.133
1746648941205983817,0.123
1746648941213671426,0.098
1746648941221359035,0.069
1746648941229046644,0.032
1746648941236734253,0.0
1746648941244421862,-0.022
1746648941252109471,-0.049
1746648941259797080,-0.069
1746648941267484689,-0.061
1746648941275172298,-0.059000000000000004
1746648941282859907,-0.083
1746648941290547516,-0.091
1746648941298235125,-0.078
1746648941305922734,-0.078
1746648941313610343,-0.076
1746648941321297952,-0.07100000000000001
1746648941328985561,-0.076
1746648941336673170,-0.073
1746648941344360779,-0.064
1746648941352048388,-0.069
1746648941359735997,-0.073
1746648941367423606,-0.069
1746648941375111215,-0.073
1746648941382798824,-0.078
1746648941390486433,-0.076
1746648941398174042,-0.073
1746648941405861651,-0.078
1746648941413549260,-0.078
1746648941421236869,-0.07100000000000001
1746648941428924478,-0.066
1746648941436612087,-0.073
1746648941444299696,-0.078
1746648941451987305,-0.07100000000000001
1746648941459674914,-0.061
1746648941467362523,-0.066
1746648941475050132,-0.07100000000000001
1746648941482737741,-0.066
1746648941490425350,-0.066
1746648941498112959,-0.069
1746648941505800568,-0.066
1746648941513488177,-0.064
1746648941521175786,-0.064
1746648941528863395,-0.066
1746648941536551004,-0.073
1746648941544238613,-0.078
1746648941551926222,-0.069
1746648941559613831,-0.056
1746648941567301440,-0.049
1746648941574989049,-0.044
1746648941582676658,-0.034
1746648941590364267,-0.032
1746648941598051876,-0.039
1746648941605739485,-0.051000000000000004
1746648941613427094,-0.056
1746648941621114703,-0.066
1746648941628802312,-0.069
1746648941636489921,-0.059000000000000004
1746648941644177530,-0.056
1746648941651865139,-0.064
1746648941659552748,-0.078
1746648941667240357,-0.108
1746648941674927966,-0.054
1746648941682615575,0.266
1746648941690303184,0.6920000000000001
1746648941697990793,0.646
1746648941705678402,0.024
1746648941713366011,-0.433
1746648941721053620,-0.337
1746648941728741229,-0.177
1746648941736428838,-0.197
1746648941744116447,-0.15
1746648941751804101,-0.064,85,666
1746648941759491710,-0.076
1746648941767179319,-0.08600000000000001
1746648941774866928,-0.061
1746648941782554537,-0.054
1746648941790242146,-0.051000000000000004
1746648941797929755,-0.041
1746648941805617364,-0.039
1746648941813304973,-0.041
1746648941820992582,-0.039
1746648941828680191,-0.034
1746648941836367800,-0.027
1746648941844055409,-0.024
1746648941851743018,-0.022
1746648941859430627,-0.022
1746648941867118236,-0.022
1746648941874805845,-0.009000000000000001
1746648941882493454,0.017
1746648941890181063,0.029
1746648941897868672,0.017
1746648941905556281,0.019
1746648941913243890,0.032
1746648941920931499,0.034
1746648941928619108,0.044
1746648941936306717,0.059000000000000004
1746648941943994326,0.056
1746648941951681935,0.054
1746648941959369544,0.066
1746648941967057153,0.061
1746648941974744762,0.041
1746648941982432371,0.029
1746648941990119980,0.004
1746648941997807589,-0.034
1746648942005495198,-0.064
1746648942013182807,-0.088
1746648942020870416,-0.113
1746648942028558025,-0.123
1746648942036245634,-0.135
1746648942043933243,-0.152
1746648942051620852,-0.145
1746648942059308461,-0.125
1746648942066996070,-0.13
1746648942074683679,-0.14
1746648942082371288,-0.135
1746648942090058897,-0.138
1746648942097746506,-0.138
1746648942105434115,-0.123
1746648942113121724,-0.123
1746648942120809333,-0.13
1746648942128496942,-0.128
1746648942136184551,-0.125
1746648942143872160,-0.138
1746648942151559769,-0.14
1746648942159247378,-0.135
1746648942166934987,-0.133
1746648942174622596,-0.138
1746648942182310205,-0.14
1746648942189997814,-0.13
1746648942197685423,-0.125
1746648942205373032,-0.13
1746648942213060641,-0.125
1746648942220748250,-0.11800000000000001
1746648942228435859,-0.123
1746648942236123468,-0.133
1746648942243811077,-0.125
1746648942251498686,-0.113
1746648942259186295,-0.113
1746648942266873904,-0.12
1746648942274561513,-0.115
1746648942282249122,-0.101
1746648942289936731,-0.106
1746648942297624340,-0.123
1746648942305311949,-0.113
1746648942312999603,-0.106
1746648942320686794,-0.11800000000000001
1746648942328373985,-0.113
1746648942336061176,-0.091
1746648942343748367,-0.088
1746648942351435558,-0.091
1746648942359122749,-0.073
1746648942366809940,-0.061
1746648942374497131,-0.076
1746648942382184322,-0.091
1746648942389871513,-0.08600000000000001
1746648942397558704,-0.081
1746648942405245895,-0.093
1746648942412933086,-0.096
1746648942420620277,-0.083
1746648942428307468,-0.083
1746648942435994659,-0.101
1746648942443681850,-0.106
1746648942451369041,0.022
1746648942459056232,0.404
1746648942466743423,0.7000000000000001
1746648942474430614,0.369
1746648942482117805,-0.308
1746648942489804996,-0.522
1746648942497492187,-0.305
1746648942505179378,-0.214
1746648942512866569,-0.224
1746648942520553760,-0.128
1746648942528240951,-0.059000000000000004
1746648942535928142,-0.07100000000000001
1746648942543615333,-0.061
1746648942551302524,-0.036000000000000004
1746648942558989715,-0.041
1746648942566676906,-0.041
1746648942574364097,-0.024
1746648942582051288,-0.017
1746648942589738479,-0.019
1746648942597425670,-0.014
1746648942605112861,-0.007
1746648942612800052,0.0
1746648942620487243,0.004
1746648942628174434,0.009000000000000001
1746648942635861625,0.014
1746648942643548816,0.027
1746648942651236007,0.036000000000000004
1746648942658923198,0.044
1746648942666610389,0.051000000000000004
1746648942674297580,0.056
1746648942681984771,0.07100000000000001
1746648942689671962,0.091
1746648942697359153,0.096
1746648942705046344,0.096
1746648942712733535,0.10300000000000001
1746648942720420726,0.106
1746648942728107917,0.10300000000000001
1746648942735795108,0.106
1746648942743482299,0.10300000000000001
1746648942751169490,0.08600000000000001
1746648942758856681,0.061
1746648942766543872,0.024
1746648942774231063,-0.022
1746648942781918254,-0.059000000000000004
1746648942789605445,-0.083
1746648942797292636,-0.106
1746648942804979827,-0.115
1746648942812667018,-0.11800000000000001
1746648942820354209,-0.12
1746648942828041400,-0.115
1746648942835728591,-0.108
1746648942843415782,-0.106
1746648942851102973,-0.096
1746648942858790164,-0.096
1746648942866477355,-0.101
1746648942874164583,-0.098,85,708
1746648942881852192,-0.098,,718
1746648942889539801,-0.101
1746648942897227410,-0.091
1746648942904915019,-0.08600000000000001
1746648942912602628,-0.093
1746648942920290237,-0.10300000000000001
1746648942927977846,-0.10300000000000001
1746648942935665455,-0.10300000000000001
1746648942943353064,-0.10300000000000001
1746648942951040673,-0.10300000000000001
1746648942958728282,-0.101
1746648942966415891,-0.10300000000000001
1746648942974103500,-0.10300000000000001
1746648942981791109,-0.10300000000000001
1746648942989478718,-0.106
1746648942997166327,-0.101
1746648943004853936,-0.091
1746648943012541545,-0.093
1746648943020229154,-0.098
1746648943027916763,-0.096
1746648943035604372,-0.091
1746648943043291981,-0.088
1746648943050979590,-0.08600000000000001
1746648943058667199,-0.08600000000000001
1746648943066354808,-0.081
1746648943074042417,-0.078
1746648943081730026,-0.078
1746648943089417635,-0.078
1746648943097105244,-0.073
1746648943104792853,-0.078
1746648943112480462,-0.091
1746648943120168071,-0.093
1746648943127855680,-0.088
1746648943135543289,-0.083
1746648943143230898,-0.07100000000000001
1746648943150918507,-0.056
1746648943158606116,-0.049
1746648943166293725,-0.041
1746648943173981334,-0.039
1746648943181668943,-0.061
1746648943189356552,-0.076
1746648943197044161,-0.069
1746648943204731770,-0.061
1746648943212419379,-0.064
1746648943220106988,-0.064
1746648943227794597,-0.059000000000000004
1746648943235482206,-0.066
1746648943243169815,-0.108
1746648943250857424,-0.101
1746648943258545033,0.145
1746648943266232642,0.606
1746648943273920251,0.769
1746648943281607860,0.28300000000000003
1746648943289295469,-0.31
1746648943296983078,-0.377
1746648943304670687,-0.192
1746648943312358296,-0.182
1746648943320045905,-0.167
1746648943327733514,-0.073
1746648943335421123,-0.069
1746648943343108732,-0.096
1746648943350796341,-0.066
1746648943358483950,-0.044
1746648943366171559,-0.049
1746648943373859168,-0.044
1746648943381546777,-0.041
1746648943389234386,-0.046
1746648943396921995,-0.036000000000000004
1746648943404609604,-0.034
1746648943412297213,-0.041
1746648943419984822,-0.032
1746648943427672431,-0.017
1746648943435360089,-0.009000000000000001,85,766
1746648943443047698,-0.009000000000000001
1746648943450735307,-0.012
1746648943458422916,-0.004
1746648943466110525,0.0
1746648943473798134,0.004
1746648943481485743,0.017
1746648943489173352,0.027
1746648943496860961,0.034
1746648943504548570,0.039
1746648943512236179,0.044
1746648943519923788,0.049
1746648943527611397,0.054
1746648943535299006,0.054
1746648943542986615,0.051000000000000004
1746648943550674224,0.054
1746648943558361833,0.039
1746648943566049442,0.004
1746648943573737051,-0.027
1746648943581424660,-0.056
1746648943589112269,-0.083
1746648943596799878,-0.101
1746648943604487487,-0.12
1746648943612175096,-0.135
1746648943619862705,-0.128
1746648943627550314,-0.128
1746648943635237923,-0.14
1746648943642925532,-0.138
1746648943650613141,-0.123
1746648943658300750,-0.123
1746648943665988359,-0.125
1746648943673675968,-0.11800000000000001
1746648943681363577,-0.113
1746648943689051186,-0.115
1746648943696738795,-0.115
1746648943704426404,-0.115
1746648943712114013,-0.113
1746648943719801622,-0.11
1746648943727489231,-0.115
1746648943735176840,-0.12
1746648943742864449,-0.11800000000000001
1746648943750552058,-0.115
1746648943758239667,-0.123
1746648943765927276,-0.125
1746648943773614885,-0.11800000000000001
1746648943781302494,-0.113
1746648943788990103,-0.11800000000000001
1746648943796677712,-0.12
1746648943804365321,-0.115
1746648943812052930,-0.113
1746648943819740539,-0.11800000000000001
1746648943827428148,-0.11
1746648943835115757,-0.101
1746648943842803366,-0.106
1746648943850490975,-0.11
1746648943858178584,-0.106
1746648943865866193,-0.10300000000000001
1746648943873553802,-0.101
1746648943881241411,-0.098
1746648943888929020,-0.101
1746648943896616629,-0.106
1746648943904304238,-0.106
1746648943911991847,-0.101
1746648943919679456,-0.101
1746648943927367065,-0.10300000000000001
1746648943935054674,-0.096
1746648943942742283,-0.098
1746648943950429892,-0.11
1746648943958117501,-0.115
1746648943965805110,-0.113
1746648943973492719,-0.108
1746648943981180328,-0.093
1746648943988867937,-0.081
1746648943996555591,-0.073
1746648944004242991,-0.061
1746648944011930391,-0.066
1746648944019617791,-0.093
1746648944027305191,-0.098
1746648944034992591,-0.091
1746648944042679991,-0.096
1746648944050367391,-0.098
1746648944058054791,-0.096
1746648944065742191,-0.10300000000000001
1746648944073429591,-0.115
1746648944081116991,-0.135
1746648944088804391,-0.091
1746648944096491791,0.20700000000000002
1746648944104179191,0.655
1746648944111866591,0.665
1746648944119553991,0.064
1746648944127241391,-0.426
1746648944134928791,-0.357
1746648944142616191,-0.199
1746648944150303591,-0.226
1746648944157990991,-0.189
1746648944165678391,-0.10300000000000001
1746648944173365791,-0.106
1746648944181053191,-0.115
1746648944188740591,-0.083
1746648944196427991,-0.076
1746648944204115391,-0.081
1746648944211802791,-0.059000000000000004
1746648944219490191,-0.059000000000000004
1746648944227177591,-0.073
1746648944234864991,-0.059000000000000004
1746648944242552391,-0.049
1746648944250239791,-0.056
1746648944257927191,-0.046
1746648944265614591,-0.034
1746648944273301991,-0.039
1746648944280989391,-0.034
1746648944288676791,-0.019
1746648944296364191,-0.012
1746648944304051591,-0.004
1746648944311738991,0.012
1746648944319426391,0.014
1746648944327113791,0.009000000000000001
1746648944334801191,0.019
1746648944342488591,0.029
1746648944350175991,0.041
1746648944357863391,0.049
1746648944365550791,0.039
1746648944373238191,0.029
1746648944380925591,0.039
1746648944388612991,0.044
1746648944396300391,0.022
1746648944403987791,-0.007
1746648944411675191,-0.039
1746648944419362591,-0.07100000000000001
1746648944427049991,-0.093
1746648944434737391,-0.113
1746648944442424791,-0.14
1746648944450112191,-0.15
1746648944457799591,-0.147
1746648944465486991,-0.152
1746648944473174391,-0.155
1746648944480861791,-0.145
1746648944488549191,-0.145
1746648944496236591,-0.145
1746648944503923991,-0.133
1746648944511611391,-0.128
1746648944519298791,-0.133
1746648944526986191,-0.135
1746648944534673591,-0.133
1746648944542360991,-0.123
1746648944550048391,-0.123
1746648944557735832,-0.133,85,774
1746648944565423371,-0.133
1746648944573110910,-0.123
1746648944580798449,-0.12
1746648944588485988,-0.13
1746648944596173527,-0.138
1746648944603861066,-0.135
1746648944611548605,-0.133
1746648944619236144,-0.13
1746648944626923683,-0.128
1746648944634611222,-0.13
1746648944642298761,-0.125
1746648944649986300,-0.115
1746648944657673839,-0.11800000000000001
1746648944665361378,-0.12
1746648944673048917,-0.113
1746648944680736456,-0.113
1746648944688423995,-0.113
1746648944696111534,-0.11
1746648944703799073,-0.108
1746648944711486612,-0.11
1746648944719174151,-0.10300000000000001
1746648944726861690,-0.093
1746648944734549229,-0.098
1746648944742236768,-0.098
1746648944749924307,-0.091
1746648944757611846,-0.093
1746648944765299385,-0.098
1746648944772986924,-0.093
1746648944780674463,-0.096
1746648944788362002,-0.101
1746648944796049541,-0.088
1746648944803737080,-0.066
1746648944811424619,-0.054
1746648944819112158,-0.049
1746648944826799697,-0.044
1746648944834487236,-0.054
1746648944842174775,-0.066
1746648944849862314,-0.069
1746648944857549853,-0.073
1746648944865237392,-0.078
1746648944872924931,-0.069
1746648944880612470,-0.066
1746648944888300009,-0.076
1746648944895987548,-0.083
1746648944903675087,-0.07100000000000001
1746648944911362626,0.115
1746648944919050165,0.537
1746648944926737704,0.717
1746648944934425243,0.226
1746648944942112782,-0.399
1746648944949800321,-0.463
1746648944957487860,-0.246
1746648944965175399,-0.214
1746648944972862938,-0.199
1746648944980550477,-0.073
1746648944988238016,-0.027
1746648944995925555,-0.056
1746648945003613094,-0.044
1746648945011300633,-0.012
1746648945018988172,-0.019
1746648945026675711,-0.024
1746648945034363250,0.0
1746648945042050789,0.007
1746648945049738328,-0.002
1746648945057425867,0.004
1746648945065113406,0.012
1746648945072800945,0.017
1746648945080488484,0.036000000000000004
1746648945088176023,0.041
1746648945095863562,0.036000000000000004
1746648945103551101,0.044
1746648945111238640,0.056
1746648945118926247,0.069
1746648945126613717,0.073
1746648945134301187,0.081
1746648945141988657,0.091
1746648945149676127,0.096
1746648945157363597,0.106
1746648945165051067,0.11800000000000001
1746648945172738537,0.123
1746648945180426007,0.11800000000000001
1746648945188113477,0.115
1746648945195800947,0.113
1746648945203488417,0.106
1746648945211175887,0.091
1746648945218863357,0.061
1746648945226550827,0.024
1746648945234238297,-0.009000000000000001
1746648945241925767,-0.046
1746648945249613237,-0.081
1746648945257300707,-0.098
1746648945264988177,-0.108
1746648945272675647,-0.115
1746648945280363117,-0.11800000000000001
1746648945288050587,-0.11800000000000001
1746648945295738057,-0.11
1746648945303425527,-0.101
1746648945311112997,-0.098
1746648945318800467,-0.093
1746648945326487937,-0.081
1746648945334175407,-0.07100000000000001
1746648945341862877,-0.076
1746648945349550347,-0.078
1746648945357237817,-0.078
1746648945364925287,-0.08600000000000001
1746648945372612757,-0.08600000000000001
1746648945380300227,-0.083
1746648945387987697,-0.091
1746648945395675167,-0.096
1746648945403362637,-0.091
1746648945411050107,-0.08600000000000001
1746648945418737577,-0.093
1746648945426425047,-0.096
1746648945434112517,-0.096
1746648945441799987,-0.091
1746648945449487457,-0.08600000000000001
1746648945457174927,-0.08600000000000001
1746648945464862397,-0.081
1746648945472549867,-0.078
1746648945480237337,-0.083
1746648945487924807,-0.091
1746648945495612277,-0.083
1746648945503299747,-0.07100000000000001
1746648945510987217,-0.069
1746648945518674687,-0.073
1746648945526362157,-0.069
1746648945534049627,-0.066
1746648945541737097,-0.07100000000000001
1746648945549424567,-0.07100000000000001
1746648945557112037,-0.066
1746648945564799507,-0.061
1746648945572486977,-0.059000000000000004
1746648945580174447,-0.066
1746648945587861917,-0.076
1746648945595549387,-0.078
1746648945603236857,-0.073
1746648945610924327,-0.069
1746648945618611797,-0.064
1746648945626299267,-0.051000000000000004
1746648945633986737,-0.036000000000000004
1746648945641674207,-0.027
1746648945649361677,-0.029
1746648945657049147,-0.039
1746648945664736617,-0.049
1746648945672424087,-0.056
1746648945680111579,-0.059000000000000004,84,806
1746648945687799188,-0.056
1746648945695486797,-0.051000000000000004
1746648945703174406,-0.054
1746648945710862015,-0.061
1746648945718549624,-0.07100000000000001
1746648945726237233,-0.098
1746648945733924842,-0.051000000000000004
1746648945741612451,0.276
1746648945749300060,0.734
1746648945756987669,0.734
1746648945764675278,0.133
1746648945772362887,-0.362
1746648945780050496,-0.308
1746648945787738105,-0.155
1746648945795425714,-0.18
1746648945803113323,-0.138
1746648945810800932,-0.056
1746648945818488541,-0.078
1746648945826176150,-0.088
1746648945833863759,-0.051000000000000004
1746648945841551368,-0.046
1746648945849238977,-0.054
1746648945856926586,-0.039
1746648945864614195,-0.029
1746648945872301804,-0.032
1746648945879989413,-0.032
1746648945887677022,-0.027
1746648945895364631,-0.022
1746648945903052240,-0.022
1746648945910739849,-0.014
1746648945918427458,-0.007
1746648945926115067,-0.002
1746648945933802676,0.002
1746648945941490285,0.009000000000000001
1746648945949177894,0.014
1746648945956865503,0.024
1746648945964553112,0.034
1746648945972240721,0.046
1746648945979928330,0.051000000000000004
1746648945987615939,0.059000000000000004
1746648945995303548,0.064
1746648946002991157,0.064
1746648946010678766,0.066
1746648946018366375,0.066
1746648946026053984,0.066
1746648946033741593,0.059000000000000004
1746648946041429202,0.036000000000000004
1746648946049116811,0.012
1746648946056804420,-0.012
1746648946064492029,-0.044
1746648946072179638,-0.081
1746648946079867247,-0.106
1746648946087554856,-0.115
1746648946095242465,-0.123
1746648946102930074,-0.125
1746648946110617683,-0.128
1746648946118305292,-0.125
1746648946125992901,-0.12
1746648946133680510,-0.113
1746648946141368119,-0.11
1746648946149055728,-0.11
1746648946156743337,-0.11
1746648946164430946,-0.108
1746648946172118555,-0.10300000000000001
1746648946179806164,-0.098
1746648946187493773,-0.10300000000000001
1746648946195181382,-0.115
1746648946202868991,-0.115
1746648946210556600,-0.106
1746648946218244209,-0.10300000000000001
1746648946225931818,-0.108
1746648946233619427,-0.11
1746648946241307081,-0.108
1746648946248994272,-0.11
1746648946256681463,-0.113
1746648946264368654,-0.108
1746648946272055845,-0.113
1746648946279743036,-0.113
1746648946287430227,-0.101
1746648946295117418,-0.098
1746648946302804609,-0.106
1746648946310491800,-0.10300000000000001
1746648946318178991,-0.10300000000000001
1746648946325866182,-0.101
1746648946333553373,-0.098
1746648946341240564,-0.101
1746648946348927755,-0.098
1746648946356614946,-0.093
1746648946364302137,-0.093
1746648946371989328,-0.096
1746648946379676519,-0.096
1746648946387363710,-0.093
1746648946395050901,-0.088
1746648946402738092,-0.088
1746648946410425283,-0.098
1746648946418112474,-0.101
1746648946425799665,-0.096
1746648946433486856,-0.101
1746648946441174047,-0.098
1746648946448861238,-0.081
1746648946456548429,-0.073
1746648946464235620,-0.078
1746648946471922811,-0.064
1746648946479610002,-0.046
1746648946487297193,-0.066
1746648946494984384,-0.091
1746648946502671575,-0.081
1746648946510358766,-0.066
1746648946518045957,-0.081
1746648946525733148,-0.091
1746648946533420339,-0.076
1746648946541107530,-0.073
1746648946548794721,-0.106
1746648946556481912,-0.12
1746648946564169103,0.022
1746648946571856294,0.421
1746648946579543485,0.737
1746648946587230676,0.443
1746648946594917867,-0.20700000000000002
1746648946602605058,-0.446
1746648946610292249,-0.266
1746648946617979440,-0.197
1746648946625666631,-0.219
1746648946633353822,-0.123
1746648946641041013,-0.061
1746648946648728204,-0.091
1746648946656415395,-0.088
1746648946664102586,-0.056
1746648946671789777,-0.054
1746648946679476968,-0.054
1746648946687164159,-0.041
1746648946694851350,-0.032
1746648946702538541,-0.032
1746648946710225732,-0.024
1746648946717912923,-0.017
1746648946725600114,-0.014
1746648946733287305,-0.007
1746648946740974496,0.0
1746648946748661687,0.002
1746648946756348878,0.004
1746648946764036069,0.019
1746648946771723260,0.032
1746648946779410451,0.039
1746648946787097642,0.051000000000000004
1746648946794784833,0.064
1746648946802472065,0.083,82,836
1746648946810159674,0.101,,816
1746648946817847283,0.088
1746648946825534892,0.083
1746648946833222501,0.101
1746648946840910110,0.106
1746648946848597719,0.096
1746648946856285328,0.093
1746648946863972937,0.088
1746648946871660546,0.059000000000000004
1746648946879348155,0.019
1746648946887035764,-0.004
1746648946894723373,-0.036000000000000004
1746648946902410982,-0.081
1746648946910098591,-0.10300000000000001
1746648946917786200,-0.11
1746648946925473809,-0.12
1746648946933161418,-0.11800000000000001
1746648946940849027,-0.115
1746648946948536636,-0.113
1746648946956224245,-0.098
1746648946963911854,-0.093
1746648946971599463,-0.091
1746648946979287072,-0.076
1746648946986974681,-0.07100000000000001
1746648946994662290,-0.076
1746648947002349899,-0.066
1746648947010037508,-0.061
1746648947017725117,-0.07100000000000001
1746648947025412726,-0.073
1746648947033100335,-0.066
1746648947040787944,-0.069
1746648947048475553,-0.069
1746648947056163162,-0.064
1746648947063850771,-0.066
1746648947071538380,-0.066
1746648947079225989,-0.059000000000000004
1746648947086913598,-0.061
1746648947094601207,-0.069
1746648947102288816,-0.069
1746648947109976425,-0.059000000000000004
1746648947117664034,-0.059000000000000004
1746648947125351643,-0.059000000000000004
1746648947133039252,-0.046
1746648947140726861,-0.044
1746648947148414470,-0.049
1746648947156102079,-0.041
1746648947163789688,-0.039
1746648947171477297,-0.046
1746648947179164906,-0.044
1746648947186852515,-0.044
1746648947194540124,-0.044
1746648947202227733,-0.039
1746648947209915342,-0.039
1746648947217602951,-0.041
1746648947225290560,-0.034
1746648947232978169,-0.022
1746648947240665778,-0.017
1746648947248353387,-0.012
1746648947256040996,0.0
1746648947263728605,0.012
1746648947271416214,-0.002
1746648947279103823,-0.022
1746648947286791432,-0.022
1746648947294479041,-0.019
1746648947302166650,-0.029
1746648947309854259,-0.034
1746648947317541868,-0.024
1746648947325229477,-0.019
1746648947332917086,-0.036000000000000004
1746648947340604695,-0.054
1746648947348292304,0.073
1746648947355979913,0.47800000000000004
1746648947363667567,0.803,81,828
1746648947371355176,0.47000000000000003
1746648947379042785,-0.244
1746648947386730394,-0.48
1746648947394418003,-0.258
1746648947402105612,-0.182
1746648947409793221,-0.202
1746648947417480830,-0.078
1746648947425168439,0.002
1746648947432856048,-0.027
1746648947440543657,-0.022
1746648947448231266,0.007
1746648947455918875,0.002
1746648947463606484,0.0
1746648947471294093,0.017
1746648947478981702,0.019
1746648947486669311,0.014
1746648947494356920,0.022
1746648947502044529,0.032
1746648947509732138,0.032
1746648947517419747,0.032
1746648947525107356,0.039
1746648947532794965,0.051000000000000004
1746648947540482574,0.061
1746648947548170183,0.061
1746648947555857792,0.07100000000000001
1746648947563545401,0.08600000000000001
1746648947571233010,0.088
1746648947578920619,0.088
1746648947586608228,0.10300000000000001
1746648947594295837,0.115
1746648947601983446,0.125
1746648947609671055,0.138
1746648947617358664,0.14
1746648947625046273,0.13
1746648947632733882,0.13
1746648947640421491,0.125
1746648947648109100,0.101
1746648947655796709,0.07100000000000001
1746648947663484318,0.041
1746648947671171927,0.0
1746648947678859536,-0.049
1746648947686547145,-0.076
1746648947694234754,-0.091
1746648947701922363,-0.10300000000000001
1746648947709609972,-0.113
1746648947717297581,-0.115
1746648947724985190,-0.113
1746648947732672799,-0.101
1746648947740360408,-0.096
1746648947748048017,-0.096
1746648947755735626,-0.083
1746648947763423235,-0.078
1746648947771110844,-0.078
1746648947778798453,-0.078
1746648947786486062,-0.081
1746648947794173671,-0.078
1746648947801861280,-0.076
1746648947809548889,-0.076
1746648947817236498,-0.073
1746648947824924107,-0.073
1746648947832611716,-0.088
1746648947840299325,-0.093
1746648947847986934,-0.08600000000000001
1746648947855674543,-0.08600000000000001
1746648947863362152,-0.091
1746648947871049761,-0.091
1746648947878737370,-0.091
1746648947886424979,-0.08600000000000001
1746648947894112588,-0.08600000000000001
1746648947901800197,-0.088
1746648947909487806,-0.088
1746648947917175415,-0.083
1746648947924863069,-0.08600000000000001
1746648947932550399,-0.088
1746648947940237729,-0.083
1746648947947925059,-0.078
1746648947955612389,-0.083
1746648947963299719,-0.083
1746648947970987049,-0.076
1746648947978674379,-0.073
1746648947986361709,-0.073
1746648947994049039,-0.076
1746648948001736369,-0.078
1746648948009423699,-0.073
1746648948017111029,-0.069
1746648948024798359,-0.076
1746648948032485689,-0.081
1746648948040173019,-0.08600000000000001
1746648948047860349,-0.091
1746648948055547679,-0.081
1746648948063235009,-0.069
1746648948070922339,-0.061
1746648948078609669,-0.054
1746648948086296999,-0.039
1746648948093984329,-0.032
1746648948101671659,-0.044
1746648948109358989,-0.061
1746648948117046319,-0.069
1746648948124733649,-0.069
1746648948132420979,-0.066
1746648948140108309,-0.064
1746648948147795639,-0.061
1746648948155482969,-0.066
1746648948163170299,-0.08600000000000001
1746648948170857629,-0.11800000000000001
1746648948178544959,-0.061
1746648948186232289,0.278
1746648948193919619,0.742
1746648948201606949,0.737
1746648948209294279,0.133
1746648948216981609,-0.357
1746648948224668939,-0.305
1746648948232356269,-0.17
1746648948240043599,-0.202
1746648948247730929,-0.16
1746648948255418259,-0.081
1746648948263105589,-0.093
1746648948270792919,-0.106
1746648948278480249,-0.076
1746648948286167579,-0.066
1746648948293854909,-0.066
1746648948301542239,-0.061
1746648948309229569,-0.056
1746648948316916899,-0.059000000000000004
1746648948324604229,-0.054
1746648948332291559,-0.046
1746648948339978889,-0.041
1746648948347666219,-0.036000000000000004
1746648948355353549,-0.032
1746648948363040879,-0.027
1746648948370728209,-0.017
1746648948378415539,-0.012
1746648948386102869,-0.009000000000000001
1746648948393790199,-0.002
1746648948401477529,0.009000000000000001
1746648948409164859,0.022
1746648948416852189,0.032
1746648948424539519,0.036000000000000004
1746648948432226849,0.044
1746648948439914179,0.046
1746648948447601509,0.051000000000000004
1746648948455288839,0.066
1746648948462976169,0.066
1746648948470663499,0.056
1746648948478350829,0.049
1746648948486038223,0.032,80,826
1746648948493725762,0.0
1746648948501413301,-0.032
1746648948509100840,-0.056
1746648948516788379,-0.08600000000000001
1746648948524475918,-0.115
1746648948532163457,-0.133
1746648948539850996,-0.14
1746648948547538535,-0.145
1746648948555226074,-0.138
1746648948562913613,-0.13
1746648948570601152,-0.138
1746648948578288691,-0.14
1746648948585976230,-0.128
1746648948593663769,-0.11800000000000001
1746648948601351308,-0.11800000000000001
1746648948609038847,-0.12
1746648948616726386,-0.12
1746648948624413925,-0.115
1746648948632101464,-0.115
1746648948639789003,-0.11800000000000001
1746648948647476542,-0.11800000000000001
1746648948655164081,-0.11
1746648948662851620,-0.115
1746648948670539159,-0.125
1746648948678226698,-0.11800000000000001
1746648948685914237,-0.108
1746648948693601776,-0.113
1746648948701289315,-0.11800000000000001
1746648948708976854,-0.11800000000000001
1746648948716664393,-0.115
1746648948724351932,-0.113
1746648948732039471,-0.101
1746648948739727010,-0.091
1746648948747414549,-0.098
1746648948755102088,-0.11800000000000001
1746648948762789627,-0.128
1746648948770477166,-0.108
1746648948778164705,-0.091
1746648948785852244,-0.091
1746648948793539783,-0.088
1746648948801227322,-0.088
1746648948808914861,-0.101
1746648948816602400,-0.10300000000000001
1746648948824289939,-0.096
1746648948831977478,-0.091
1746648948839665017,-0.088
1746648948847352556,-0.083
1746648948855040095,-0.08600000000000001
1746648948862727634,-0.091
1746648948870415173,-0.091
1746648948878102712,-0.093
1746648948885790251,-0.093
1746648948893477790,-0.091
1746648948901165329,-0.08600000000000001
1746648948908852868,-0.07100000000000001
1746648948916540407,-0.059000000000000004
1746648948924227946,-0.049
1746648948931915485,-0.046
1746648948939603024,-0.064
1746648948947290563,-0.081
1746648948954978102,-0.083
1746648948962665641,-0.076
1746648948970353180,-0.078
1746648948978040719,-0.083
1746648948985728258,-0.076
1746648948993415797,-0.07100000000000001
1746648949001103336,-0.096
1746648949008790875,-0.106
1746648949016478414,0.066
1746648949024165953,0.485
1746648949031853492,0.727
1746648949039541031,0.323
1746648949047228638,-0.325
1746648949054916177,-0.47300000000000003
1746648949062603716,-0.268
1746648949070291255,-0.214
1746648949077978794,-0.214
1746648949085666333,-0.11
1746648949093353872,-0.069
1746648949101041411,-0.091
1746648949108728950,-0.066
1746648949116416489,-0.041
1746648949124104028,-0.051000000000000004
1746648949131791567,-0.054
1746648949139479106,-0.032
1746648949147166645,-0.019
1746648949154854184,-0.022
1746648949162541723,-0.024
1746648949170229262,-0.027
1746648949177916801,-0.014
1746648949185604340,-0.002
1746648949193291879,0.002
1746648949200979418,0.014
1746648949208666957,0.024
1746648949216354496,0.024
1746648949224042035,0.034
1746648949231729574,0.049
1746648949239417113,0.064
1746648949247104652,0.076
1746648949254792191,0.081
1746648949262479730,0.091
1746648949270167269,0.115
1746648949277854808,0.12
1746648949285542347,0.106
1746648949293229886,0.101
1746648949300917425,0.113
1746648949308604964,0.10300000000000001
1746648949316292503,0.073
1746648949323980042,0.044
1746648949331667581,0.007
1746648949339355120,-0.036000000000000004
1746648949347042659,-0.073
1746648949354730198,-0.10300000000000001
1746648949362417737,-0.128
1746648949370105276,-0.14
1746648949377792815,-0.15
1746648949385480354,-0.15
1746648949393167893,-0.145
1746648949400855432,-0.135
1746648949408542971,-0.128
1746648949416230510,-0.13
1746648949423918049,-0.128
1746648949431605588,-0.11800000000000001
1746648949439293127,-0.113
1746648949446980666,-0.106
1746648949454668205,-0.096
1746648949462355744,-0.096
1746648949470043283,-0.101
1746648949477730822,-0.10300000000000001
1746648949485418361,-0.096
1746648949493105900,-0.093
1746648949500793439,-0.108
1746648949508480978,-0.115
1746648949516168517,-0.108
1746648949523856056,-0.108
1746648949531543595,-0.108
1746648949539231134,-0.108
1746648949546918673,-0.10300000000000001
1746648949554606212,-0.10300000000000001
1746648949562293751,-0.106
1746648949569981290,-0.11
1746648949577668829,-0.108
1746648949585356368,-0.10300000000000001
1746648949593043907,-0.098
1746648949600731446,-0.096
1746648949608419053,-0.096,79,784
1746648949616106592,-0.096
1746648949623794131,-0.091
1746648949631481670,-0.08600000000000001
1746648949639169209,-0.08600000000000001
1746648949646856748,-0.08600000000000001
1746648949654544287,-0.083
1746648949662231826,-0.083
1746648949669919365,-0.08600000000000001
1746648949677606904,-0.081
1746648949685294443,-0.076
1746648949692981982,-0.073
1746648949700669521,-0.073
1746648949708357060,-0.073
1746648949716044599,-0.073
1746648949723732138,-0.081
1746648949731419677,-0.076
1746648949739107216,-0.056
1746648949746794755,-0.046
1746648949754482294,-0.044
1746648949762169833,-0.032
1746648949769857372,-0.029
1746648949777544911,-0.044
1746648949785232450,-0.049
1746648949792919989,-0.049
1746648949800607528,-0.054
1746648949808295067,-0.051000000000000004
1746648949815982606,-0.049
1746648949823670145,-0.049
1746648949831357684,-0.056
1746648949839045223,-0.096
1746648949846732762,-0.056
1746648949854420301,0.273
1746648949862107840,0.737
1746648949869795379,0.747
1746648949877482918,0.14
1746648949885170457,-0.369
1746648949892857996,-0.315
1746648949900545535,-0.155
1746648949908233074,-0.18
1746648949915920613,-0.14
1746648949923608152,-0.046
1746648949931295691,-0.054
1746648949938983230,-0.069
1746648949946670769,-0.034
1746648949954358308,-0.024
1746648949962045847,-0.032
1746648949969733386,-0.019
1746648949977420925,-0.012
1746648949985108464,-0.012
1746648949992796003,-0.009000000000000001
1746648950000483542,0.0
1746648950008171081,0.002
1746648950015858620,0.004
1746648950023546159,0.009000000000000001
1746648950031233698,0.017
1746648950038921237,0.027
1746648950046608776,0.036000000000000004
1746648950054296315,0.044
1746648950061983854,0.049
1746648950069671393,0.054
1746648950077358932,0.066
1746648950085046471,0.081
1746648950092734010,0.096
1746648950100421549,0.108
1746648950108109088,0.115
1746648950115796627,0.11800000000000001
1746648950123484166,0.125
1746648950131171705,0.13
1746648950138859244,0.128
1746648950146546783,0.113
1746648950154234322,0.093
1746648950161921861,0.064
1746648950169609472,0.024
1746648950177297011,-0.014
1746648950184984550,-0.041
1746648950192672089,-0.066
1746648950200359628,-0.078
1746648950208047167,-0.08600000000000001
1746648950215734706,-0.091
1746648950223422245,-0.091
1746648950231109784,-0.08600000000000001
1746648950238797323,-0.083
1746648950246484862,-0.081
1746648950254172401,-0.078
1746648950261859940,-0.07100000000000001
1746648950269547479,-0.066
1746648950277235018,-0.064
1746648950284922557,-0.061
1746648950292610096,-0.066
1746648950300297635,-0.066
1746648950307985174,-0.061
1746648950315672713,-0.066
1746648950323360252,-0.07100000000000001
1746648950331047791,-0.066
1746648950338735330,-0.064
1746648950346422869,-0.07100000000000001
1746648950354110408,-0.073
1746648950361797947,-0.069
1746648950369485486,-0.064
1746648950377173025,-0.064
1746648950384860564,-0.066
1746648950392548103,-0.064
1746648950400235642,-0.061
1746648950407923181,-0.066
1746648950415610720,-0.069
1746648950423298259,-0.061
1746648950430985798,-0.054
1746648950438673337,-0.064
1746648950446360876,-0.07100000000000001
1746648950454048415,-0.061
1746648950461735954,-0.054
1746648950469423493,-0.054
1746648950477111032,-0.059000000000000004
1746648950484798571,-0.056
1746648950492486110,-0.051000000000000004
1746648950500173649,-0.056
1746648950507861188,-0.056
1746648950515548727,-0.049
1746648950523236266,-0.051000000000000004
1746648950530923805,-0.059000000000000004
1746648950538611344,-0.051000000000000004
1746648950546298883,-0.044
1746648950553986422,-0.046
1746648950561673961,-0.044
1746648950569361500,-0.039
1746648950577049039,-0.044
1746648950584736578,-0.049
1746648950592424117,-0.049
1746648950600111656,-0.059000000000000004
1746648950607799195,-0.069
1746648950615486734,-0.069
1746648950623174273,-0.061
1746648950630861812,-0.046
1746648950638549351,-0.032
1746648950646236890,-0.029
1746648950653924429,-0.034
1746648950661611968,-0.022
1746648950669299507,-0.007
1746648950676987046,-0.022
1746648950684674585,-0.044
1746648950692362124,-0.049
1746648950700049663,-0.049
1746648950707737202,-0.044
1746648950715424741,-0.036000000000000004
1746648950723112280,-0.036000000000000004
1746648950730799887,-0.061,79,834
1746648950738487217,-0.096
1746648950746174547,-0.056
1746648950753861877,0.229
1746648950761549207,0.687
1746648950769236537,0.786
1746648950776923867,0.256
1746648950784611197,-0.3
1746648950792298527,-0.323
1746648950799985857,-0.157
1746648950807673187,-0.17200000000000001
1746648950815360517,-0.16
1746648950823047847,-0.07100000000000001
1746648950830735177,-0.064
1746648950838422507,-0.088
1746648950846109837,-0.064
1746648950853797167,-0.046
1746648950861484497,-0.056
1746648950869171827,-0.054
1746648950876859157,-0.041
1746648950884546487,-0.034
1746648950892233817,-0.024
1746648950899921147,-0.029
1746648950907608477,-0.036000000000000004
1746648950915295807,-0.024
1746648950922983137,-0.009000000000000001
1746648950930670467,-0.009000000000000001
1746648950938357797,0.002
1746648950946045127,0.009000000000000001
1746648950953732457,0.012
1746648950961419787,0.032
1746648950969107117,0.036000000000000004
1746648950976794447,0.032
1746648950984481777,0.046
1746648950992169107,0.069
1746648950999856437,0.078
1746648951007543767,0.083
1746648951015231097,0.088
1746648951022918427,0.096
1746648951030605757,0.096
1746648951038293087,0.096
1746648951045980417,0.08600000000000001
1746648951053667747,0.061
1746648951061355077,0.029
1746648951069042407,-0.004
1746648951076729737,-0.039
1746648951084417067,-0.07100000000000001
1746648951092104397,-0.098
1746648951099791727,-0.12
1746648951107479057,-0.133
1746648951115166387,-0.133
1746648951122853717,-0.125
1746648951130541047,-0.12
1746648951138228377,-0.128
1746648951145915707,-0.133
1746648951153603037,-0.11800000000000001
1746648951161290367,-0.106
1746648951168977697,-0.10300000000000001
1746648951176665027,-0.106
1746648951184352357,-0.101
1746648951192039687,-0.096
1746648951199727017,-0.088
1746648951207414347,-0.083
1746648951215101677,-0.093
1746648951222789007,-0.101
1746648951230476337,-0.093
1746648951238163667,-0.08600000000000001
1746648951245850997,-0.081
1746648951253538327,-0.073
1746648951261225657,-0.078
1746648951268912987,-0.10300000000000001
1746648951276600317,-0.106
1746648951284287647,-0.091
1746648951291975045,-0.091
1746648951299662654,-0.088
1746648951307350263,-0.083
1746648951315037872,-0.081
1746648951322725481,-0.081
1746648951330413090,-0.081
1746648951338100699,-0.078
1746648951345788308,-0.073
1746648951353475917,-0.066
1746648951361163526,-0.064
1746648951368851135,-0.073
1746648951376538744,-0.081
1746648951384226353,-0.073
1746648951391913962,-0.064
1746648951399601571,-0.061
1746648951407289180,-0.064
1746648951414976789,-0.056
1746648951422664398,-0.044
1746648951430352007,-0.046
1746648951438039616,-0.061
1746648951445727225,-0.054
1746648951453414834,-0.036000000000000004
1746648951461102443,-0.039
1746648951468790052,-0.046
1746648951476477661,-0.044
1746648951484165270,-0.034
1746648951491852879,-0.019
1746648951499540488,-0.002
1746648951507228097,0.012
1746648951514915706,0.009000000000000001
1746648951522603315,-0.007
1746648951530290924,-0.017
1746648951537978533,-0.019
1746648951545666142,-0.024
1746648951553353751,-0.017
1746648951561041360,-0.007
1746648951568728969,-0.012
1746648951576416578,-0.019
1746648951584104187,-0.022
1746648951591791796,-0.012
1746648951599479405,0.157
1746648951607167014,0.584
1746648951614854623,0.8160000000000001
1746648951622542232,0.352
1746648951630229841,-0.32
1746648951637917450,-0.438
1746648951645605059,-0.221
1746648951653292668,-0.177
1746648951660980277,-0.165
1746648951668667886,-0.039
1746648951676355495,0.024
1746648951684043104,0.004
1746648951691730713,0.012
1746648951699418322,0.032
1746648951707105931,0.034
1746648951714793540,0.041
1746648951722481149,0.044
1746648951730168758,0.044
1746648951737856367,0.056
1746648951745543976,0.07100000000000001
1746648951753231585,0.07100000000000001
1746648951760919194,0.064
1746648951768606803,0.07100000000000001
1746648951776294412,0.081
1746648951783982021,0.083
1746648951791669630,0.091
1746648951799357239,0.106
1746648951807044848,0.11800000000000001
1746648951814732457,0.133
1746648951822420066,0.14300000000000002
1746648951830107675,0.145
1746648951837795284,0.16
1746648951845482893,0.17500000000000002
1746648951853170547,0.177,78,833
1746648951860857808,0.182,,835
1746648951868545069,0.187
1746648951876232330,0.184
1746648951883919591,0.18
1746648951891606852,0.17
1746648951899294113,0.147
1746648951906981374,0.113
1746648951914668635,0.073
1746648951922355896,0.029
1746648951930043157,-0.012
1746648951937730418,-0.051000000000000004
1746648951945417679,-0.076
1746648951953104940,-0.08600000000000001
1746648951960792201,-0.093
1746648951968479462,-0.091
1746648951976166723,-0.083
1746648951983853984,-0.093
1746648951991541245,-0.098
1746648951999228506,-0.083
1746648952006915767,-0.073
1746648952014603028,-0.066
1746648952022290289,-0.051000000000000004
1746648952029977550,-0.051000000000000004
1746648952037664811,-0.059000000000000004
1746648952045352072,-0.056
1746648952053039333,-0.056
1746648952060726594,-0.056
1746648952068413855,-0.056
1746648952076101116,-0.059000000000000004
1746648952083788377,-0.066
1746648952091475638,-0.07100000000000001
1746648952099162899,-0.066
1746648952106850160,-0.061
1746648952114537421,-0.066
1746648952122224682,-0.076
1746648952129911943,-0.073
1746648952137599204,-0.069
1746648952145286465,-0.069
1746648952152973726,-0.066
1746648952160660987,-0.069
1746648952168348248,-0.07100000000000001
1746648952176035509,-0.073
1746648952183722770,-0.07100000000000001
1746648952191410031,-0.069
1746648952199097292,-0.064
1746648952206784553,-0.061
1746648952214471814,-0.066
1746648952222159075,-0.066
1746648952229846336,-0.064
1746648952237533597,-0.059000000000000004
1746648952245220858,-0.059000000000000004
1746648952252908119,-0.066
1746648952260595380,-0.066
1746648952268282641,-0.059000000000000004
1746648952275969902,-0.059000000000000004
1746648952283657163,-0.064
1746648952291344424,-0.061
1746648952299031685,-0.059000000000000004
1746648952306718946,-0.054
1746648952314406207,-0.051000000000000004
1746648952322093468,-0.059000000000000004
1746648952329780729,-0.061
1746648952337467990,-0.061
1746648952345155251,-0.064
1746648952352842512,-0.069
1746648952360529773,-0.066
1746648952368217034,-0.054
1746648952375904295,-0.044
1746648952383591556,-0.041
1746648952391278817,-0.029
1746648952398966078,-0.022
1746648952406653339,-0.034
1746648952414340614,-0.049,77,900
1746648952422028153,-0.046
1746648952429715692,-0.046
1746648952437403231,-0.056
1746648952445090770,-0.059000000000000004
1746648952452778309,-0.051000000000000004
1746648952460465848,-0.054
1746648952468153387,-0.07100000000000001
1746648952475840926,-0.10300000000000001
1746648952483528465,-0.093
1746648952491216004,0.14300000000000002
1746648952498903543,0.616
1746648952506591082,0.835
1746648952514278621,0.399
1746648952521966160,-0.221
1746648952529653699,-0.352
1746648952537341238,-0.199
1746648952545028777,-0.20400000000000001
1746648952552716316,-0.20400000000000001
1746648952560403855,-0.108
1746648952568091394,-0.088
1746648952575778933,-0.11
1746648952583466472,-0.096
1746648952591154011,-0.08600000000000001
1746648952598841550,-0.08600000000000001
1746648952606529089,-0.076
1746648952614216628,-0.07100000000000001
1746648952621904167,-0.073
1746648952629591706,-0.066
1746648952637279245,-0.056
1746648952644966784,-0.054
1746648952652654323,-0.054
1746648952660341862,-0.044
1746648952668029401,-0.032
1746648952675716940,-0.029
1746648952683404479,-0.027
1746648952691092018,-0.022
1746648952698779557,-0.007
1746648952706467096,0.004
1746648952714154635,0.009000000000000001
1746648952721842174,0.014
1746648952729529713,0.027
1746648952737217252,0.044
1746648952744904791,0.059000000000000004
1746648952752592330,0.061
1746648952760279869,0.069
1746648952767967408,0.07100000000000001
1746648952775654947,0.066
1746648952783342486,0.061
1746648952791030025,0.054
1746648952798717564,0.029
1746648952806405103,-0.012
1746648952814092642,-0.049
1746648952821780181,-0.076
1746648952829467720,-0.10300000000000001
1746648952837155259,-0.125
1746648952844842798,-0.135
1746648952852530337,-0.14
1746648952860217876,-0.14
1746648952867905415,-0.138
1746648952875592954,-0.138
1746648952883280493,-0.138
1746648952890968032,-0.133
1746648952898655571,-0.128
1746648952906343110,-0.133
1746648952914030649,-0.133
1746648952921718188,-0.125
1746648952929405727,-0.11800000000000001
1746648952937093266,-0.11800000000000001
1746648952944780805,-0.11800000000000001
1746648952952468344,-0.11800000000000001
1746648952960155883,-0.123
1746648952967843422,-0.123
1746648952975531029,-0.12
1746648952983218568,-0.123
1746648952990906107,-0.125
1746648952998593646,-0.125
1746648953006281185,-0.13
1746648953013968724,-0.128
1746648953021656263,-0.12
1746648953029343802,-0.123
1746648953037031341,-0.123
1746648953044718880,-0.115
1746648953052406419,-0.11800000000000001
1746648953060093958,-0.12
1746648953067781497,-0.113
1746648953075469036,-0.113
1746648953083156575,-0.123
1746648953090844114,-0.11800000000000001
1746648953098531653,-0.106
1746648953106219192,-0.106
1746648953113906731,-0.11
1746648953121594270,-0.113
1746648953129281809,-0.11
1746648953136969348,-0.108
1746648953144656887,-0.10300000000000001
1746648953152344426,-0.101
1746648953160031965,-0.093
1746648953167719504,-0.091
1746648953175407043,-0.096
1746648953183094582,-0.098
1746648953190782121,-0.093
1746648953198469660,-0.093
1746648953206157199,-0.096
1746648953213844738,-0.093
1746648953221532277,-0.093
1746648953229219816,-0.096
1746648953236907355,-0.101
1746648953244594894,-0.101
1746648953252282433,-0.101
1746648953259969972,-0.096
1746648953267657511,-0.078
1746648953275345050,-0.066
1746648953283032589,-0.066
1746648953290720128,-0.056
1746648953298407667,-0.054
1746648953306095206,-0.07100000000000001
1746648953313782745,-0.083
1746648953321470284,-0.083
1746648953329157823,-0.081
1746648953336845362,-0.076
1746648953344532901,-0.081
1746648953352220440,-0.08600000000000001
1746648953359907979,-0.091
1746648953367595518,-0.11
1746648953375283057,-0.106
1746648953382970596,0.108
1746648953390658135,0.557
1746648953398345674,0.742
1746648953406033213,0.29
1746648953413720752,-0.295
1746648953421408291,-0.394
1746648953429095830,-0.231
1746648953436783369,-0.219
1746648953444470908,-0.214
1746648953452158447,-0.113
1746648953459845986,-0.091
1746648953467533525,-0.115
1746648953475221064,-0.091
1746648953482908603,-0.073
1746648953490596142,-0.081
1746648953498283681,-0.076
1746648953505971220,-0.07100000000000001
1746648953513658759,-0.064
1746648953521346298,-0.046
1746648953529033837,-0.049
1746648953536721448,-0.054,76,847
1746648953544408987,-0.036000000000000004
1746648953552096526,-0.017
1746648953559784065,-0.012
1746648953567471604,-0.014
1746648953575159143,-0.012
1746648953582846682,-0.002
1746648953590534221,0.019
1746648953598221760,0.032
1746648953605909299,0.034
1746648953613596838,0.046
1746648953621284377,0.066
1746648953628971916,0.076
1746648953636659455,0.08600000000000001
1746648953644346994,0.096
1746648953652034533,0.106
1746648953659722072,0.10300000000000001
1746648953667409611,0.091
1746648953675097150,0.088
1746648953682784689,0.081
1746648953690472228,0.039
1746648953698159767,-0.022
1746648953705847306,-0.056
1746648953713534845,-0.083
1746648953721222384,-0.12
1746648953728909923,-0.14
1746648953736597462,-0.145
1746648953744285001,-0.152
1746648953751972540,-0.155
1746648953759660079,-0.15
1746648953767347618,-0.152
1746648953775035157,-0.152
1746648953782722696,-0.147
1746648953790410235,-0.138
1746648953798097774,-0.125
1746648953805785313,-0.115
1746648953813472852,-0.108
1746648953821160391,-0.10300000000000001
1746648953828847930,-0.10300000000000001
1746648953836535469,-0.106
1746648953844223008,-0.11
1746648953851910547,-0.11
1746648953859598086,-0.106
1746648953867285625,-0.106
1746648953874973164,-0.108
1746648953882660703,-0.108
1746648953890348242,-0.098
1746648953898035781,-0.10300000000000001
1746648953905723320,-0.11800000000000001
1746648953913410859,-0.123
1746648953921098398,-0.11
1746648953928785937,-0.101
1746648953936473476,-0.106
1746648953944161015,-0.106
1746648953951848554,-0.093
1746648953959536093,-0.091
1746648953967223632,-0.098
1746648953974911171,-0.10300000000000001
1746648953982598710,-0.10300000000000001
1746648953990286249,-0.098
1746648953997973788,-0.091
1746648954005661327,-0.081
1746648954013348866,-0.076
1746648954021036405,-0.081
1746648954028723944,-0.08600000000000001
1746648954036411483,-0.081
1746648954044099022,-0.078
1746648954051786561,-0.08600000000000001
1746648954059474100,-0.078
1746648954067161639,-0.069
1746648954074849178,-0.07100000000000001
1746648954082536717,-0.07100000000000001
1746648954090224256,-0.064
1746648954097911863,-0.046
1746648954105599402,-0.022
1746648954113286941,-0.032
1746648954120974480,-0.059000000000000004
1746648954128662019,-0.059000000000000004
1746648954136349558,-0.059000000000000004
1746648954144037097,-0.073
1746648954151724636,-0.073
1746648954159412175,-0.061
1746648954167099714,-0.059000000000000004
1746648954174787253,-0.069
1746648954182474792,-0.088
1746648954190162331,-0.066
1746648954197849870,0.184
1746648954205537409,0.633
1746648954213224948,0.715
1746648954220912487,0.13
1746648954228600026,-0.443
1746648954236287565,-0.426
1746648954243975104,-0.234
1746648954251662643,-0.241
1746648954259350182,-0.197
1746648954267037721,-0.066
1746648954274725260,-0.046
1746648954282412799,-0.069
1746648954290100338,-0.046
1746648954297787877,-0.036000000000000004
1746648954305475416,-0.046
1746648954313162955,-0.036000000000000004
1746648954320850494,-0.022
1746648954328538033,-0.029
1746648954336225572,-0.027
1746648954343913111,-0.009000000000000001
1746648954351600650,-0.007
1746648954359288189,-0.009000000000000001
1746648954366975728,0.002
1746648954374663267,0.014
1746648954382350806,0.012
1746648954390038345,0.017
1746648954397725884,0.032
1746648954405413423,0.044
1746648954413100962,0.056
1746648954420788501,0.073
1746648954428476040,0.081
1746648954436163579,0.08600000000000001
1746648954443851118,0.106
1746648954451538657,0.125
1746648954459226196,0.13
1746648954466913735,0.128
1746648954474601274,0.125
1746648954482288813,0.12
1746648954489976352,0.11
1746648954497663891,0.083
1746648954505351430,0.039
1746648954513038969,-0.009000000000000001
1746648954520726508,-0.051000000000000004
1746648954528414047,-0.078
1746648954536101586,-0.101
1746648954543789125,-0.11800000000000001
1746648954551476664,-0.125
1746648954559164203,-0.13
1746648954566851742,-0.133
1746648954574539281,-0.12
1746648954582226820,-0.11800000000000001
1746648954589914359,-0.123
1746648954597601898,-0.113
1746648954605289437,-0.098
1746648954612976976,-0.101
1746648954620664515,-0.098
1746648954628352054,-0.088
1746648954636039593,-0.078
1746648954643727132,-0.076
1746648954651414671,-0.081
1746648954659102278,-0.083,76,892
1746648954666789678,-0.076
1746648954674477078,-0.076
1746648954682164478,-0.083
1746648954689851878,-0.081
1746648954697539278,-0.078
1746648954705226678,-0.08600000000000001
1746648954712914078,-0.091
1746648954720601478,-0.08600000000000001
1746648954728288878,-0.081
1746648954735976278,-0.078
1746648954743663678,-0.076
1746648954751351078,-0.081
1746648954759038478,-0.08600000000000001
1746648954766725878,-0.078
1746648954774413278,-0.073
1746648954782100678,-0.073
1746648954789788078,-0.076
1746648954797475478,-0.076
1746648954805162878,-0.076
1746648954812850278,-0.073
1746648954820537678,-0.07100000000000001
1746648954828225078,-0.07100000000000001
1746648954835912478,-0.07100000000000001
1746648954843599878,-0.066
1746648954851287278,-0.061
1746648954858974678,-0.064
1746648954866662078,-0.066
1746648954874349478,-0.066
1746648954882036878,-0.066
1746648954889724278,-0.064
1746648954897411678,-0.056
1746648954905099078,-0.056
1746648954912786478,-0.066
1746648954920473878,-0.078
1746648954928161278,-0.081
1746648954935848678,-0.073
1746648954943536078,-0.059000000000000004
1746648954951223478,-0.049
1746648954958910878,-0.046
1746648954966598278,-0.029
1746648954974285678,-0.017
1746648954981973078,-0.041
1746648954989660478,-0.061
1746648954997347878,-0.059000000000000004
1746648955005035278,-0.059000000000000004
1746648955012722678,-0.061
1746648955020410078,-0.056
1746648955028097478,-0.054
1746648955035784878,-0.056
1746648955043472278,-0.069
1746648955051159678,-0.106
1746648955058847078,-0.051000000000000004
1746648955066534478,0.293
1746648955074221878,0.757
1746648955081909278,0.764
1746648955089596678,0.18
1746648955097284078,-0.315
1746648955104971478,-0.28800000000000003
1746648955112658878,-0.162
1746648955120346278,-0.187
1746648955128033678,-0.147
1746648955135721078,-0.076
1746648955143408478,-0.091
1746648955151095878,-0.098
1746648955158783278,-0.066
1746648955166470678,-0.059000000000000004
1746648955174158078,-0.064
1746648955181845478,-0.049
1746648955189532878,-0.044
1746648955197220278,-0.044
1746648955204907678,-0.039
1746648955212595078,-0.039
1746648955220282523,-0.036000000000000004
1746648955227970132,-0.027
1746648955235657741,-0.019
1746648955243345350,-0.017
1746648955251032959,-0.012
1746648955258720568,0.0
1746648955266408177,0.009000000000000001
1746648955274095786,0.019
1746648955281783395,0.027
1746648955289471004,0.036000000000000004
1746648955297158613,0.041
1746648955304846222,0.054
1746648955312533831,0.073
1746648955320221440,0.083
1746648955327909049,0.083
1746648955335596658,0.088
1746648955343284267,0.096
1746648955350971876,0.091
1746648955358659485,0.078
1746648955366347094,0.069
1746648955374034703,0.039
1746648955381722312,-0.002
1746648955389409921,-0.036000000000000004
1746648955397097530,-0.066
1746648955404785139,-0.098
1746648955412472748,-0.11
1746648955420160357,-0.10300000000000001
1746648955427847966,-0.108
1746648955435535575,-0.12
1746648955443223184,-0.12
1746648955450910793,-0.113
1746648955458598402,-0.113
1746648955466286011,-0.11
1746648955473973620,-0.106
1746648955481661229,-0.106
1746648955489348838,-0.10300000000000001
1746648955497036447,-0.096
1746648955504724056,-0.098
1746648955512411665,-0.106
1746648955520099274,-0.106
1746648955527786883,-0.108
1746648955535474492,-0.113
1746648955543162101,-0.108
1746648955550849710,-0.098
1746648955558537319,-0.088
1746648955566224928,-0.088
1746648955573912537,-0.096
1746648955581600146,-0.101
1746648955589287755,-0.098
1746648955596975364,-0.093
1746648955604662973,-0.098
1746648955612350582,-0.098
1746648955620038191,-0.091
1746648955627725800,-0.088
1746648955635413409,-0.08600000000000001
1746648955643101018,-0.088
1746648955650788627,-0.093
1746648955658476236,-0.08600000000000001
1746648955666163845,-0.073
1746648955673851454,-0.07100000000000001
1746648955681539063,-0.083
1746648955689226672,-0.08600000000000001
1746648955696914281,-0.078
1746648955704601890,-0.078
1746648955712289499,-0.076
1746648955719977108,-0.069
1746648955727664717,-0.076
1746648955735352326,-0.081
1746648955743039935,-0.07100000000000001
1746648955750727544,-0.066
1746648955758415153,-0.066
1746648955766102762,-0.066
1746648955773790371,-0.078
1746648955781478025,-0.078,75,892
1746648955789165634,-0.069
1746648955796853243,-0.073
1746648955804540852,-0.083
1746648955812228461,-0.081
1746648955819916070,-0.069
1746648955827603679,-0.059000000000000004
1746648955835291288,-0.056
1746648955842978897,-0.046
1746648955850666506,-0.034
1746648955858354115,-0.044
1746648955866041724,-0.061
1746648955873729333,-0.069
1746648955881416942,-0.078
1746648955889104551,-0.081
1746648955896792160,-0.07100000000000001
1746648955904479769,-0.069
1746648955912167378,-0.076
1746648955919854987,-0.078
1746648955927542596,-0.088
1746648955935230205,-0.002
1746648955942917814,0.34500000000000003
1746648955950605423,0.72
1746648955958293032,0.562
1746648955965980641,-0.083
1746648955973668250,-0.463
1746648955981355859,-0.327
1746648955989043468,-0.192
1746648955996731077,-0.212
1746648956004418686,-0.147
1746648956012106295,-0.064
1746648956019793904,-0.07100000000000001
1746648956027481513,-0.07100000000000001
1746648956035169122,-0.039
1746648956042856731,-0.036000000000000004
1746648956050544340,-0.044
1746648956058231949,-0.034
1746648956065919558,-0.029
1746648956073607167,-0.032
1746648956081294776,-0.029
1746648956088982385,-0.014
1746648956096669994,0.0
1746648956104357603,0.009000000000000001
1746648956112045212,0.012
1746648956119732821,0.014
1746648956127420430,0.022
1746648956135108039,0.034
1746648956142795648,0.041
1746648956150483257,0.056
1746648956158170866,0.081
1746648956165858475,0.098
1746648956173546084,0.106
1746648956181233693,0.113
1746648956188921302,0.133
1746648956196608911,0.147
1746648956204296520,0.147
1746648956211984129,0.15
1746648956219671738,0.152
1746648956227359347,0.14
1746648956235046956,0.125
1746648956242734565,0.101
1746648956250422174,0.064
1746648956258109783,0.017
1746648956265797392,-0.022
1746648956273485001,-0.051000000000000004
1746648956281172610,-0.076
1746648956288860219,-0.096
1746648956296547828,-0.10300000000000001
1746648956304235437,-0.108
1746648956311923046,-0.108
1746648956319610655,-0.098
1746648956327298264,-0.093
1746648956334985873,-0.091
1746648956342673527,-0.083,74,813
1746648956350360718,-0.073
1746648956358047909,-0.07100000000000001
1746648956365735100,-0.069
1746648956373422291,-0.059000000000000004
1746648956381109482,-0.049
1746648956388796673,-0.046
1746648956396483864,-0.044
1746648956404171055,-0.036000000000000004
1746648956411858246,-0.039
1746648956419545437,-0.044
1746648956427232628,-0.041
1746648956434919819,-0.036000000000000004
1746648956442607010,-0.041
1746648956450294201,-0.039
1746648956457981392,-0.032
1746648956465668583,-0.039
1746648956473355774,-0.046
1746648956481042965,-0.039
1746648956488730156,-0.032
1746648956496417347,-0.032
1746648956504104538,-0.032
1746648956511791729,-0.027
1746648956519478920,-0.024
1746648956527166111,-0.027
1746648956534853302,-0.022
1746648956542540493,-0.014
1746648956550227684,-0.014
1746648956557914875,-0.017
1746648956565602066,-0.012
1746648956573289257,-0.007
1746648956580976448,-0.007
1746648956588663639,0.0
1746648956596350830,0.002
1746648956604038021,-0.007
1746648956611725212,-0.007
1746648956619412403,0.002
1746648956627099594,-0.002
1746648956634786785,-0.012
1746648956642473976,-0.009000000000000001
1746648956650161167,-0.009000000000000001
1746648956657848358,-0.004
1746648956665535549,0.012
1746648956673222740,0.024
1746648956680909931,0.027
1746648956688597122,0.032
1746648956696284313,0.041
1746648956703971504,0.032
1746648956711658695,0.017
1746648956719345886,0.009000000000000001
1746648956727033077,0.009000000000000001
1746648956734720268,0.012
1746648956742407459,0.004
1746648956750094650,0.0
1746648956757781841,0.004
1746648956765469032,-0.009000000000000001
1746648956773156223,-0.041
1746648956780843414,0.059000000000000004
1746648956788530605,0.448
1746648956796217796,0.843
1746648956803904987,0.665
1746648956811592178,0.009000000000000001
1746648956819279369,-0.35000000000000003
1746648956826966560,-0.226
1746648956834653751,-0.128
1746648956842340942,-0.14300000000000002
1746648956850028133,-0.061
1746648956857715324,0.004
1746648956865402515,-0.019
1746648956873089706,-0.022
1746648956880776897,0.009000000000000001
1746648956888464088,0.017
1746648956896151279,0.009000000000000001
1746648956903838511,0.012
1746648956911526678,0.012
1746648956919214845,0.014
1746648956926903012,0.029
1746648956934591179,0.034
1746648956942279346,0.032
1746648956949967513,0.029
1746648956957655680,0.034
1746648956965343847,0.034
1746648956973032014,0.044
1746648956980720181,0.056
1746648956988408348,0.064
1746648956996096515,0.069
1746648957003784682,0.078
1746648957011472849,0.088
1746648957019161016,0.096
1746648957026849183,0.11
1746648957034537350,0.128
1746648957042225517,0.128
1746648957049913684,0.123
1746648957057601851,0.13
1746648957065290018,0.138
1746648957072978185,0.138
1746648957080666352,0.128
1746648957088354519,0.101
1746648957096042686,0.051000000000000004
1746648957103730853,0.004
1746648957111419020,-0.029
1746648957119107187,-0.061
1746648957126795354,-0.081
1746648957134483521,-0.088
1746648957142171688,-0.10300000000000001
1746648957149859855,-0.115
1746648957157548022,-0.11
1746648957165236189,-0.098
1746648957172924356,-0.098
1746648957180612523,-0.098
1746648957188300690,-0.091
1746648957195988857,-0.08600000000000001
1746648957203677024,-0.088
1746648957211365191,-0.08600000000000001
1746648957219053358,-0.083
1746648957226741525,-0.081
1746648957234429692,-0.076
1746648957242117859,-0.076
1746648957249806026,-0.078
1746648957257494193,-0.083
1746648957265182360,-0.08600000000000001
1746648957272870527,-0.091
1746648957280558694,-0.096
1746648957288246861,-0.093
1746648957295935028,-0.088
1746648957303623195,-0.088
1746648957311311362,-0.088
1746648957318999529,-0.08600000000000001
1746648957326687696,-0.091
1746648957334375863,-0.096
1746648957342064030,-0.093
1746648957349752197,-0.08600000000000001
1746648957357440364,-0.083
1746648957365128531,-0.08600000000000001
1746648957372816698,-0.088
1746648957380504865,-0.088
1746648957388193032,-0.08600000000000001
1746648957395881199,-0.081
1746648957403569366,-0.078
1746648957411257533,-0.078
1746648957418945700,-0.08600000000000001
1746648957426633867,-0.083
1746648957434322034,-0.076
1746648957442010201,-0.076
1746648957449698368,-0.081
1746648957457386535,-0.083
1746648957465074703,-0.083,74,868
1746648957472761755,-0.081
1746648957480448807,-0.078
1746648957488135859,-0.07100000000000001
1746648957495822911,-0.069
1746648957503509963,-0.076
1746648957511197015,-0.078
1746648957518884067,-0.078
1746648957526571119,-0.078
1746648957534258171,-0.081
1746648957541945223,-0.08600000000000001
1746648957549632275,-0.091
1746648957557319327,-0.093
1746648957565006379,-0.091
1746648957572693431,-0.08600000000000001
1746648957580380483,-0.076
1746648957588067535,-0.064
1746648957595754587,-0.059000000000000004
1746648957603441639,-0.046
1746648957611128691,-0.046
1746648957618815743,-0.073
1746648957626502795,-0.088
1746648957634189847,-0.078
1746648957641876899,-0.078
1746648957649563951,-0.083
1746648957657251003,-0.078
1746648957664938055,-0.076
1746648957672625107,-0.088
1746648957680312159,-0.115
1746648957687999211,-0.135
1746648957695686263,0.027
1746648957703373315,0.47500000000000003
1746648957711060367,0.8210000000000001
1746648957718747419,0.547
1746648957726434471,-0.10300000000000001
1746648957734121523,-0.384
1746648957741808575,-0.246
1746648957749495627,-0.194
1746648957757182679,-0.221
1746648957764869731,-0.147
1746648957772556783,-0.106
1746648957780243835,-0.13
1746648957787930887,-0.123
1746648957795617939,-0.098
1746648957803304991,-0.096
1746648957810992043,-0.093
1746648957818679095,-0.088
1746648957826366147,-0.08600000000000001
1746648957834053199,-0.083
1746648957841740251,-0.076
1746648957849427303,-0.069
1746648957857114355,-0.064
1746648957864801407,-0.061
1746648957872488459,-0.064
1746648957880175511,-0.056
1746648957887862563,-0.041
1746648957895549615,-0.036000000000000004
1746648957903236667,-0.029
1746648957910923719,-0.017
1746648957918610771,-0.007
1746648957926297823,0.004
1746648957933984875,0.017
1746648957941671927,0.029
1746648957949358979,0.039
1746648957957046031,0.046
1746648957964733083,0.054
1746648957972420135,0.056
1746648957980107187,0.051000000000000004
1746648957987794239,0.049
1746648957995481291,0.041
1746648958003168343,0.014
1746648958010855395,-0.022
1746648958018542447,-0.051000000000000004
1746648958026229515,-0.081
1746648958033916845,-0.12
1746648958041604175,-0.157
1746648958049291505,-0.167
1746648958056978835,-0.155
1746648958064666165,-0.157
1746648958072353495,-0.17200000000000001
1746648958080040825,-0.167
1746648958087728155,-0.157
1746648958095415485,-0.157
1746648958103102815,-0.155
1746648958110790145,-0.147
1746648958118477475,-0.147
1746648958126164805,-0.145
1746648958133852135,-0.14
1746648958141539465,-0.14300000000000002
1746648958149226795,-0.147
1746648958156914125,-0.14
1746648958164601455,-0.135
1746648958172288785,-0.138
1746648958179976115,-0.14
1746648958187663445,-0.14
1746648958195350775,-0.14
1746648958203038105,-0.14
1746648958210725435,-0.138
1746648958218412765,-0.138
1746648958226100095,-0.135
1746648958233787425,-0.138
1746648958241474755,-0.14300000000000002
1746648958249162085,-0.14300000000000002
1746648958256849415,-0.14
1746648958264536745,-0.13
1746648958272224075,-0.13
1746648958279911405,-0.133
1746648958287598735,-0.133
1746648958295286065,-0.13
1746648958302973395,-0.128
1746648958310660725,-0.125
1746648958318348055,-0.123
1746648958326035385,-0.123
1746648958333722715,-0.115
1746648958341410045,-0.113
1746648958349097375,-0.11800000000000001
1746648958356784705,-0.12
1746648958364472035,-0.115
1746648958372159365,-0.11
1746648958379846695,-0.113
1746648958387534025,-0.11
1746648958395221355,-0.10300000000000001
1746648958402908685,-0.108
1746648958410596015,-0.115
1746648958418283345,-0.101
1746648958425970675,-0.098
1746648958433658005,-0.113
1746648958441345335,-0.12
1746648958449032665,-0.113
1746648958456719995,-0.108
1746648958464407325,-0.101
1746648958472094655,-0.091
1746648958479781985,-0.083
1746648958487469315,-0.073
1746648958495156645,-0.069
1746648958502843975,-0.091
1746648958510531305,-0.10300000000000001
1746648958518218635,-0.098
1746648958525905965,-0.098
1746648958533593295,-0.106
1746648958541280625,-0.098
1746648958548967955,-0.096
1746648958556655285,-0.11
1746648958564342615,-0.123
1746648958572029945,-0.12
1746648958579717275,0.027
1746648958587404669,0.433,73,875
1746648958595092208,0.732,,846
1746648958602779747,0.389
1746648958610467286,-0.293
1746648958618154825,-0.527
1746648958625842364,-0.323
1746648958633529903,-0.231
1746648958641217442,-0.253
1746648958648904981,-0.157
1746648958656592520,-0.083
1746648958664280059,-0.108
1746648958671967598,-0.101
1746648958679655137,-0.064
1746648958687342676,-0.064
1746648958695030215,-0.066
1746648958702717754,-0.051000000000000004
1746648958710405293,-0.051000000000000004
1746648958718092832,-0.056
1746648958725780371,-0.046
1746648958733467910,-0.032
1746648958741155449,-0.029
1746648958748842988,-0.027
1746648958756530527,-0.022
1746648958764218066,-0.012
1746648958771905605,0.0
1746648958779593144,0.007
1746648958787280683,0.017
1746648958794968222,0.034
1746648958802655761,0.049
1746648958810343300,0.059000000000000004
1746648958818030839,0.069
1746648958825718378,0.088
1746648958833405917,0.101
1746648958841093456,0.106
1746648958848780995,0.10300000000000001
1746648958856468534,0.11
1746648958864156073,0.113
1746648958871843612,0.098
1746648958879531151,0.078
1746648958887218690,0.051000000000000004
1746648958894906229,0.004
1746648958902593768,-0.039
1746648958910281307,-0.078
1746648958917968846,-0.113
1746648958925656385,-0.14
1746648958933343924,-0.152
1746648958941031463,-0.157
1746648958948719002,-0.162
1746648958956406541,-0.162
1746648958964094080,-0.155
1746648958971781619,-0.147
1746648958979469158,-0.147
1746648958987156697,-0.145
1746648958994844236,-0.133
1746648959002531775,-0.125
1746648959010219314,-0.13
1746648959017906853,-0.13
1746648959025594392,-0.12
1746648959033281931,-0.113
1746648959040969470,-0.11
1746648959048657009,-0.115
1746648959056344548,-0.11800000000000001
1746648959064032087,-0.115
1746648959071719626,-0.115
1746648959079407165,-0.11800000000000001
1746648959087094704,-0.125
1746648959094782243,-0.125
1746648959102469782,-0.11800000000000001
1746648959110157321,-0.123
1746648959117844860,-0.128
1746648959125532399,-0.12
1746648959133219938,-0.11
1746648959140907477,-0.11
1746648959148595084,-0.115
1746648959156282623,-0.115
1746648959163970162,-0.11
1746648959171657701,-0.108
1746648959179345240,-0.115
1746648959187032779,-0.11800000000000001
1746648959194720318,-0.108
1746648959202407857,-0.10300000000000001
1746648959210095396,-0.106
1746648959217782935,-0.108
1746648959225470474,-0.096
1746648959233158013,-0.08600000000000001
1746648959240845552,-0.096
1746648959248533091,-0.10300000000000001
1746648959256220630,-0.096
1746648959263908169,-0.091
1746648959271595708,-0.091
1746648959279283247,-0.091
1746648959286970786,-0.088
1746648959294658325,-0.08600000000000001
1746648959302345864,-0.091
1746648959310033403,-0.093
1746648959317720942,-0.096
1746648959325408481,-0.098
1746648959333096020,-0.088
1746648959340783559,-0.07100000000000001
1746648959348471098,-0.061
1746648959356158637,-0.049
1746648959363846176,-0.044
1746648959371533715,-0.059000000000000004
1746648959379221254,-0.066
1746648959386908793,-0.073
1746648959394596332,-0.081
1746648959402283871,-0.076
1746648959409971410,-0.069
1746648959417658949,-0.07100000000000001
1746648959425346488,-0.073
1746648959433034027,-0.083
1746648959440721566,-0.115
1746648959448409105,-0.044
1746648959456096644,0.32
1746648959463784183,0.761
1746648959471471722,0.685
1746648959479159261,0.054
1746648959486846800,-0.392
1746648959494534339,-0.315
1746648959502221878,-0.189
1746648959509909417,-0.216
1746648959517596956,-0.165
1746648959525284495,-0.08600000000000001
1746648959532972034,-0.101
1746648959540659573,-0.106
1746648959548347112,-0.073
1746648959556034651,-0.064
1746648959563722190,-0.061
1746648959571409729,-0.046
1746648959579097268,-0.049
1746648959586784807,-0.061
1746648959594472346,-0.054
1746648959602159885,-0.039
1746648959609847424,-0.034
1746648959617534963,-0.032
1746648959625222502,-0.024
1746648959632910041,-0.022
1746648959640597580,-0.017
1746648959648285119,-0.007
1746648959655972658,0.002
1746648959663660197,0.007
1746648959671347736,0.019
1746648959679035275,0.032
1746648959686722814,0.044
1746648959694410353,0.056
1746648959702097892,0.07100000000000001
1746648959709785503,0.081,73,914
1746648959717473042,0.083
1746648959725160581,0.08600000000000001
1746648959732848120,0.088
1746648959740535659,0.083
1746648959748223198,0.081
1746648959755910737,0.061
1746648959763598276,0.024
1746648959771285815,-0.012
1746648959778973354,-0.044
1746648959786660893,-0.083
1746648959794348432,-0.11
1746648959802035971,-0.12
1746648959809723510,-0.135
1746648959817411049,-0.14300000000000002
1746648959825098588,-0.135
1746648959832786127,-0.128
1746648959840473666,-0.125
1746648959848161205,-0.11800000000000001
1746648959855848744,-0.115
1746648959863536283,-0.113
1746648959871223822,-0.106
1746648959878911361,-0.101
1746648959886598900,-0.106
1746648959894286439,-0.108
1746648959901973978,-0.101
1746648959909661517,-0.096
1746648959917349056,-0.098
1746648959925036595,-0.098
1746648959932724134,-0.096
1746648959940411673,-0.101
1746648959948099212,-0.106
1746648959955786751,-0.10300000000000001
1746648959963474290,-0.101
1746648959971161829,-0.098
1746648959978849368,-0.098
1746648959986536907,-0.101
1746648959994224446,-0.10300000000000001
1746648960001911985,-0.101
1746648960009599524,-0.098
1746648960017287063,-0.098
1746648960024974602,-0.101
1746648960032662141,-0.10300000000000001
1746648960040349680,-0.101
1746648960048037219,-0.098
1746648960055724758,-0.096
1746648960063412297,-0.093
1746648960071099836,-0.091
1746648960078787375,-0.088
1746648960086474914,-0.08600000000000001
1746648960094162453,-0.088
1746648960101849992,-0.091
1746648960109537531,-0.088
1746648960117225070,-0.088
1746648960124912609,-0.08600000000000001
1746648960132600148,-0.078
1746648960140287687,-0.073
1746648960147975226,-0.081
1746648960155662765,-0.081
1746648960163350304,-0.073
1746648960171037843,-0.083
1746648960178725382,-0.093
1746648960186412921,-0.091
1746648960194100460,-0.093
1746648960201787999,-0.088
1746648960209475538,-0.064
1746648960217163077,-0.054
1746648960224850616,-0.059000000000000004
1746648960232538155,-0.049
1746648960240225694,-0.044
1746648960247913233,-0.061
1746648960255600772,-0.076
1746648960263288311,-0.07100000000000001
1746648960270975918,-0.069
1746648960278663179,-0.073
1746648960286350440,-0.073
1746648960294037701,-0.066
1746648960301724962,-0.07100000000000001
1746648960309412223,-0.10300000000000001
1746648960317099484,-0.106
1746648960324786745,0.088
1746648960332474006,0.537
1746648960340161267,0.801
1746648960347848528,0.424
1746648960355535789,-0.216
1746648960363223050,-0.396
1746648960370910311,-0.214
1746648960378597572,-0.177
1746648960386284833,-0.202
1746648960393972094,-0.123
1746648960401659355,-0.083
1746648960409346616,-0.098
1746648960417033877,-0.083
1746648960424721138,-0.061
1746648960432408399,-0.059000000000000004
1746648960440095660,-0.051000000000000004
1746648960447782921,-0.044
1746648960455470182,-0.049
1746648960463157443,-0.056
1746648960470844704,-0.046
1746648960478531965,-0.036000000000000004
1746648960486219226,-0.027
1746648960493906487,-0.017
1746648960501593748,-0.014
1746648960509281009,-0.012
1746648960516968270,-0.002
1746648960524655531,0.007
1746648960532342792,0.019
1746648960540030053,0.027
1746648960547717314,0.034
1746648960555404575,0.051000000000000004
1746648960563091836,0.069
1746648960570779097,0.08600000000000001
1746648960578466358,0.096
1746648960586153619,0.101
1746648960593840880,0.108
1746648960601528141,0.115
1746648960609215402,0.11
1746648960616902663,0.098
1746648960624589924,0.076
1746648960632277185,0.044
1746648960639964446,0.004
1746648960647651707,-0.029
1746648960655338968,-0.059000000000000004
1746648960663026229,-0.088
1746648960670713490,-0.11
1746648960678400751,-0.125
1746648960686088012,-0.14
1746648960693775273,-0.145
1746648960701462534,-0.14
1746648960709149795,-0.135
1746648960716837056,-0.128
1746648960724524317,-0.123
1746648960732211578,-0.12
1746648960739898839,-0.115
1746648960747586100,-0.11
1746648960755273361,-0.106
1746648960762960622,-0.101
1746648960770647883,-0.091
1746648960778335144,-0.088
1746648960786022405,-0.101
1746648960793709666,-0.106
1746648960801396927,-0.098
1746648960809084188,-0.088
1746648960816771449,-0.091
1746648960824458710,-0.093
1746648960832145989,-0.08600000000000001,72,884
1746648960839833389,-0.091
1746648960847520789,-0.101
1746648960855208189,-0.093
1746648960862895589,-0.091
1746648960870582989,-0.096
1746648960878270389,-0.083
1746648960885957789,-0.07100000000000001
1746648960893645189,-0.083
1746648960901332589,-0.091
1746648960909019989,-0.073
1746648960916707389,-0.064
1746648960924394789,-0.07100000000000001
1746648960932082189,-0.07100000000000001
1746648960939769589,-0.064
1746648960947456989,-0.066
1746648960955144389,-0.066
1746648960962831789,-0.056
1746648960970519189,-0.054
1746648960978206589,-0.059000000000000004
1746648960985893989,-0.051000000000000004
1746648960993581389,-0.034
1746648961001268789,-0.032
1746648961008956189,-0.027
1746648961016643589,0.002
1746648961024330989,0.004
1746648961032018389,-0.022
1746648961039705789,-0.024
1746648961047393189,-0.024
1746648961055080589,-0.039
1746648961062767989,-0.029
1746648961070455389,-0.017
1746648961078142789,-0.032
1746648961085830189,-0.032
1746648961093517589,-0.024
1746648961101204989,-0.009000000000000001
1746648961108892389,0.20700000000000002
1746648961116579789,0.658
1746648961124267189,0.798
1746648961131954589,0.231
1746648961139641989,-0.40900000000000003
1746648961147329389,-0.433
1746648961155016789,-0.202
1746648961162704189,-0.184
1746648961170391589,-0.162
1746648961178078989,-0.022
1746648961185766389,0.017
1746648961193453789,-0.012
1746648961201141189,0.012
1746648961208828589,0.036000000000000004
1746648961216515989,0.032
1746648961224203389,0.032
1746648961231890789,0.039
1746648961239578189,0.041
1746648961247265589,0.049
1746648961254952989,0.064
1746648961262640389,0.073
1746648961270327789,0.078
1746648961278015189,0.078
1746648961285702589,0.08600000000000001
1746648961293389989,0.10300000000000001
1746648961301077389,0.106
1746648961308764789,0.106
1746648961316452189,0.135
1746648961324139589,0.157
1746648961331826989,0.165
1746648961339514389,0.18
1746648961347201789,0.197
