time,ecg,hr,rr,marker
1747250758064049218,-0.28500000000000003,93,683
1747250758071736061,-0.27
1747250758079422904,-0.258
1747250758087109747,-0.246
1747250758094796590,-0.233
1747250758102483433,-0.224
1747250758110170276,-0.216
1747250758117857119,-0.20400000000000001
1747250758125543962,-0.194
1747250758133230805,-0.194
1747250758140917648,-0.194
1747250758148604491,-0.189
1747250758156291334,-0.187
1747250758163978177,-0.187
1747250758171665020,-0.189
1747250758179351863,-0.189
1747250758187038706,-0.184
1747250758194725549,-0.179
1747250758202412392,-0.179
1747250758210099235,-0.182
1747250758217786078,-0.177
1747250758225472921,-0.17200000000000001
1747250758233159764,-0.169
1747250758240846607,-0.169
1747250758248533450,-0.17400000000000002
1747250758256220293,-0.179
1747250758263907136,-0.169
1747250758271593979,-0.14
1747250758279280822,-0.12
1747250758286967665,-0.123
1747250758294654508,-0.12
1747250758302341351,-0.108
1747250758310028194,-0.11800000000000001
1747250758317715037,-0.15
1747250758325401880,-0.167
1747250758333088723,-0.16
1747250758340775566,-0.15
1747250758348462409,-0.145
1747250758356149252,-0.14
1747250758363836095,-0.137
1747250758371522938,-0.14
1747250758379209781,-0.16
1747250758386896624,-0.216
1747250758394583467,-0.295
1747250758402270310,-0.15
1747250758409957153,0.536
1747250758417643996,1.474
1747250758425330839,1.907
1747250758433017682,1.176
1747250758440704525,-0.263
1747250758448391368,-0.736
1747250758456078211,-0.224
1747250758463765054,-0.123
1747250758471451897,-0.317
1747250758479138740,-0.226
1747250758486825583,-0.14
1747250758494512426,-0.187
1747250758502199269,-0.162
1747250758509886112,-0.108
1747250758517572955,-0.108
1747250758525259798,-0.098
1747250758532946641,-0.059000000000000004
1747250758540633484,-0.041
1747250758548320327,-0.024
1747250758556007170,0.004
1747250758563694013,0.034
1747250758571380856,0.061
1747250758579067699,0.096
1747250758586754542,0.137
1747250758594441385,0.182
1747250758602128228,0.224
1747250758609815071,0.268
1747250758617501914,0.3
1747250758625188771,0.315
1747250758632875753,0.315
1747250758640562735,0.3
1747250758648249717,0.27
1747250758655936699,0.233
1747250758663623681,0.17400000000000002
1747250758671310663,0.076
1747250758678997645,-0.046
1747250758686684627,-0.15
1747250758694371609,-0.226
1747250758702058591,-0.28
1747250758709745573,-0.31
1747250758717432555,-0.317
1747250758725119537,-0.317
1747250758732806519,-0.307
1747250758740493501,-0.295
1747250758748180483,-0.28
1747250758755867465,-0.268
1747250758763554447,-0.253
1747250758771241429,-0.243
1747250758778928411,-0.233
1747250758786615393,-0.224
1747250758794302375,-0.214
1747250758801989357,-0.209
1747250758809676339,-0.20400000000000001
1747250758817363321,-0.199
1747250758825050303,-0.192
1747250758832737285,-0.189
1747250758840424267,-0.189
1747250758848111249,-0.189
1747250758855798231,-0.187
1747250758863485213,-0.187
1747250758871172195,-0.184
1747250758878859177,-0.179
1747250758886546159,-0.179
1747250758894233141,-0.179
1747250758901920123,-0.17400000000000002
1747250758909607105,-0.169
1747250758917294087,-0.164
1747250758924981069,-0.157
1747250758932668051,-0.155
1747250758940355033,-0.164
1747250758948042015,-0.17200000000000001
1747250758955728997,-0.16
1747250758963415979,-0.13
1747250758971102961,-0.113
1747250758978789943,-0.115
1747250758986476925,-0.113
1747250758994163907,-0.1
1747250759001850889,-0.113
1747250759009537871,-0.147
1747250759017224853,-0.162
1747250759024911835,-0.155
1747250759032598817,-0.145
1747250759040285799,-0.14
1747250759047972781,-0.137
1747250759055659763,-0.132
1747250759063346745,-0.135
1747250759071033727,-0.157
1747250759078720709,-0.224
1747250759086407691,-0.31
1747250759094094673,-0.137
1747250759101781655,0.595
1747250759109468637,1.563
1747250759117155619,1.989
1747250759124842601,1.184
1747250759132529583,-0.31
1747250759140216565,-0.733
1747250759147903547,-0.199
1747250759155590529,-0.135
1747250759163277511,-0.332
1747250759170964493,-0.228
1747250759178651475,-0.152
1747250759186338494,-0.201,92,700
1747250759194025615,-0.17200000000000001,,679
1747250759201712736,-0.11800000000000001
1747250759209399857,-0.115
1747250759217086978,-0.096
1747250759224774099,-0.064
1747250759232461220,-0.046
1747250759240148341,-0.029
1747250759247835462,0.0
1747250759255522583,0.029
1747250759263209704,0.059000000000000004
1747250759270896825,0.096
1747250759278583946,0.135
1747250759286271067,0.177
1747250759293958188,0.228
1747250759301645309,0.273
1747250759309332430,0.302
1747250759317019551,0.32
1747250759324706672,0.32
1747250759332393793,0.305
1747250759340080914,0.28300000000000003
1747250759347768035,0.241
1747250759355455156,0.177
1747250759363142277,0.076
1747250759370829398,-0.046
1747250759378516519,-0.16
1747250759386203640,-0.23800000000000002
1747250759393890761,-0.29
1747250759401577882,-0.32
1747250759409265003,-0.332
1747250759416952124,-0.329
1747250759424639245,-0.317
1747250759432326366,-0.3
1747250759440013487,-0.28800000000000003
1747250759447700608,-0.273
1747250759455387729,-0.258
1747250759463074850,-0.243
1747250759470761971,-0.233
1747250759478449092,-0.226
1747250759486136213,-0.219
1747250759493823334,-0.214
1747250759501510455,-0.20600000000000002
1747250759509197576,-0.199
1747250759516884697,-0.199
1747250759524571818,-0.194
1747250759532258939,-0.189
1747250759539946060,-0.189
1747250759547633181,-0.192
1747250759555320302,-0.192
1747250759563007423,-0.187
1747250759570694544,-0.184
1747250759578381665,-0.182
1747250759586068786,-0.179
1747250759593755907,-0.17400000000000002
1747250759601443028,-0.17200000000000001
1747250759609130149,-0.17200000000000001
1747250759616817270,-0.167
1747250759624504391,-0.164
1747250759632191512,-0.169
1747250759639878633,-0.17400000000000002
1747250759647565754,-0.169
1747250759655252875,-0.147
1747250759662939996,-0.11800000000000001
1747250759670627117,-0.11
1747250759678314238,-0.113
1747250759686001359,-0.1
1747250759693688480,-0.10300000000000001
1747250759701375601,-0.14200000000000002
1747250759709062722,-0.167
1747250759716749843,-0.157
1747250759724436964,-0.147
1747250759732124085,-0.15
1747250759739811206,-0.14200000000000002
1747250759747498391,-0.135
1747250759755185512,-0.135
1747250759762872633,-0.147
1747250759770559754,-0.187
1747250759778246875,-0.28
1747250759785933996,-0.29
1747250759793621117,0.162
1747250759801308238,1.107
1747250759808995359,1.944
1747250759816682480,1.797
1747250759824369601,0.388
1747250759832056722,-0.75
1747250759839743843,-0.467
1747250759847430964,-0.068
1747250759855118085,-0.273
1747250759862805206,-0.305
1747250759870492327,-0.162
1747250759878179448,-0.184
1747250759885866569,-0.201
1747250759893553690,-0.132
1747250759901240811,-0.113
1747250759908927932,-0.11
1747250759916615053,-0.078
1747250759924302174,-0.056
1747250759931989295,-0.041
1747250759939676416,-0.012
1747250759947363537,0.019
1747250759955050658,0.046
1747250759962737779,0.083
1747250759970424900,0.123
1747250759978112021,0.164
1747250759985799142,0.211
1747250759993486263,0.263
1747250760001173384,0.302
1747250760008860505,0.324
1747250760016547626,0.332
1747250760024234747,0.324
1747250760031921868,0.302
1747250760039608989,0.275
1747250760047296110,0.224
1747250760054983231,0.135
1747250760062670352,0.014
1747250760070357473,-0.10300000000000001
1747250760078044594,-0.194
1747250760085731715,-0.26
1747250760093418836,-0.307
1747250760101105957,-0.327
1747250760108793078,-0.327
1747250760116480199,-0.32
1747250760124167320,-0.31
1747250760131854441,-0.295
1747250760139541562,-0.28
1747250760147228683,-0.263
1747250760154915804,-0.243
1747250760162602925,-0.233
1747250760170290046,-0.226
1747250760177977167,-0.214
1747250760185664288,-0.209
1747250760193351409,-0.20600000000000002
1747250760201038530,-0.201
1747250760208725651,-0.194
1747250760216412772,-0.192
1747250760224099893,-0.194
1747250760231787014,-0.189
1747250760239474135,-0.184
1747250760247161256,-0.184
1747250760254848377,-0.184
1747250760262535498,-0.184
1747250760270222619,-0.177
1747250760277909740,-0.169
1747250760285596861,-0.169
1747250760293283982,-0.17200000000000001
1747250760300971103,-0.164
1747250760308658288,-0.157,91,684
1747250760316345409,-0.155
1747250760324032530,-0.155
1747250760331719651,-0.16
1747250760339406772,-0.164
1747250760347093893,-0.155
1747250760354781014,-0.132
1747250760362468135,-0.115
1747250760370155256,-0.105
1747250760377842377,-0.1
1747250760385529498,-0.091
1747250760393216619,-0.096
1747250760400903740,-0.135
1747250760408590861,-0.162
1747250760416277982,-0.145
1747250760423965103,-0.13
1747250760431652224,-0.14
1747250760439339345,-0.137
1747250760447026466,-0.12
1747250760454713587,-0.125
1747250760462400708,-0.147
1747250760470087829,-0.192
1747250760477774950,-0.273
1747250760485462071,-0.23600000000000002
1747250760493149192,0.302
1747250760500836313,1.2530000000000001
1747250760508523434,1.893
1747250760516210555,1.454
1747250760523897676,0.039
1747250760531584797,-0.753
1747250760539271918,-0.332
1747250760546959039,-0.07100000000000001
1747250760554646160,-0.273
1747250760562333281,-0.243
1747250760570020402,-0.128
1747250760577707523,-0.16
1747250760585394644,-0.155
1747250760593081765,-0.098
1747250760600768886,-0.091
1747250760608456007,-0.078
1747250760616143128,-0.039
1747250760623830249,-0.022
1747250760631517370,-0.007
1747250760639204491,0.024
1747250760646891612,0.051000000000000004
1747250760654578733,0.068
1747250760662265854,0.11
1747250760669952975,0.16
1747250760677640096,0.196
1747250760685327217,0.243
1747250760693014338,0.297
1747250760700701459,0.339
1747250760708388580,0.356
1747250760716075701,0.359
1747250760723762822,0.34900000000000003
1747250760731449943,0.327
1747250760739137064,0.29
1747250760746824185,0.231
1747250760754511306,0.132
1747250760762198427,0.007
1747250760769885548,-0.105
1747250760777572669,-0.194
1747250760785259790,-0.256
1747250760792946911,-0.3
1747250760800634032,-0.315
1747250760808321153,-0.312
1747250760816008274,-0.31
1747250760823695395,-0.3
1747250760831382516,-0.28
1747250760839069637,-0.265
1747250760846756758,-0.256
1747250760854443879,-0.241
1747250760862131000,-0.226
1747250760869818189,-0.214
1747250760877504962,-0.20600000000000002
1747250760885191735,-0.199
1747250760892878508,-0.192
1747250760900565281,-0.184
1747250760908252054,-0.182
1747250760915938827,-0.182
1747250760923625600,-0.179
1747250760931312373,-0.179
1747250760938999146,-0.182
1747250760946685919,-0.179
1747250760954372692,-0.179
1747250760962059465,-0.177
1747250760969746238,-0.179
1747250760977433011,-0.177
1747250760985119784,-0.17200000000000001
1747250760992806557,-0.167
1747250761000493330,-0.167
1747250761008180103,-0.169
1747250761015866876,-0.17200000000000001
1747250761023553649,-0.164
1747250761031240422,-0.145
1747250761038927195,-0.123
1747250761046613968,-0.11800000000000001
1747250761054300741,-0.12
1747250761061987514,-0.108
1747250761069674287,-0.10300000000000001
1747250761077361060,-0.137
1747250761085047833,-0.17200000000000001
1747250761092734606,-0.164
1747250761100421379,-0.152
1747250761108108152,-0.152
1747250761115794925,-0.145
1747250761123481698,-0.14200000000000002
1747250761131168471,-0.14200000000000002
1747250761138855244,-0.15
1747250761146542017,-0.179
1747250761154228790,-0.26
1747250761161915563,-0.29
1747250761169602336,0.093
1747250761177289109,0.977
1747250761184975882,1.713
1747250761192662655,1.536
1747250761200349428,0.332
1747250761208036201,-0.684
1747250761215722974,-0.494
1747250761223409747,-0.113
1747250761231096520,-0.241
1747250761238783293,-0.273
1747250761246470066,-0.15
1747250761254156839,-0.167
1747250761261843612,-0.184
1747250761269530385,-0.123
1747250761277217158,-0.1
1747250761284903931,-0.10300000000000001
1747250761292590704,-0.076
1747250761300277477,-0.051000000000000004
1747250761307964250,-0.039
1747250761315651023,-0.012
1747250761323337796,0.017
1747250761331024569,0.041
1747250761338711342,0.073
1747250761346398115,0.11800000000000001
1747250761354084888,0.16
1747250761361771661,0.201
1747250761369458434,0.246
1747250761377145207,0.28
1747250761384831980,0.302
1747250761392518753,0.31
1747250761400205526,0.295
1747250761407892299,0.27
1747250761415579072,0.241
1747250761423265845,0.192
1747250761430952655,0.098,90,691
1747250761438639707,-0.019,,695
1747250761446326759,-0.13
1747250761454013811,-0.216
1747250761461700863,-0.278
1747250761469387915,-0.32
1747250761477074967,-0.337
1747250761484762019,-0.339
1747250761492449071,-0.332
1747250761500136123,-0.32
1747250761507823175,-0.307
1747250761515510227,-0.295
1747250761523197279,-0.28
1747250761530884331,-0.265
1747250761538571383,-0.253
1747250761546258435,-0.243
1747250761553945487,-0.231
1747250761561632539,-0.221
1747250761569319591,-0.214
1747250761577006643,-0.20400000000000001
1747250761584693695,-0.199
1747250761592380747,-0.196
1747250761600067799,-0.194
1747250761607754851,-0.192
1747250761615441903,-0.194
1747250761623128955,-0.194
1747250761630816007,-0.192
1747250761638503059,-0.189
1747250761646190111,-0.189
1747250761653877163,-0.187
1747250761661564215,-0.184
1747250761669251267,-0.182
1747250761676938319,-0.179
1747250761684625371,-0.179
1747250761692312423,-0.184
1747250761699999475,-0.187
1747250761707686527,-0.179
1747250761715373579,-0.16
1747250761723060631,-0.137
1747250761730747683,-0.132
1747250761738434735,-0.132
1747250761746121787,-0.12
1747250761753808839,-0.11800000000000001
1747250761761495891,-0.147
1747250761769182943,-0.17400000000000002
1747250761776869995,-0.17200000000000001
1747250761784557047,-0.16
1747250761792244099,-0.155
1747250761799931151,-0.155
1747250761807618203,-0.15
1747250761815305255,-0.145
1747250761822992307,-0.157
1747250761830679359,-0.201
1747250761838366411,-0.28800000000000003
1747250761846053463,-0.26
1747250761853740515,0.248
1747250761861427567,1.179
1747250761869114619,1.866
1747250761876801671,1.543
1747250761884488723,0.17400000000000002
1747250761892175775,-0.745
1747250761899862827,-0.403
1747250761907549879,-0.083
1747250761915236931,-0.28
1747250761922923983,-0.28500000000000003
1747250761930611035,-0.157
1747250761938298087,-0.184
1747250761945985139,-0.192
1747250761953672191,-0.13
1747250761961359243,-0.113
1747250761969046295,-0.108
1747250761976733347,-0.078
1747250761984420399,-0.054
1747250761992107465,-0.036000000000000004,89,697
1747250761999794586,-0.012
1747250762007481707,0.014
1747250762015168828,0.046
1747250762022855949,0.081
1747250762030543070,0.123
1747250762038230191,0.167
1747250762045917312,0.214
1747250762053604433,0.256
1747250762061291554,0.29
1747250762068978675,0.315
1747250762076665796,0.32
1747250762084352917,0.307
1747250762092040038,0.28500000000000003
1747250762099727159,0.253
1747250762107414280,0.196
1747250762115101401,0.1
1747250762122788522,-0.019
1747250762130475643,-0.132
1747250762138162764,-0.219
1747250762145849885,-0.28
1747250762153537006,-0.315
1747250762161224127,-0.329
1747250762168911248,-0.332
1747250762176598369,-0.327
1747250762184285490,-0.312
1747250762191972611,-0.3
1747250762199659732,-0.28500000000000003
1747250762207346853,-0.268
1747250762215033974,-0.253
1747250762222721095,-0.243
1747250762230408216,-0.233
1747250762238095337,-0.224
1747250762245782458,-0.214
1747250762253469579,-0.209
1747250762261156700,-0.209
1747250762268843821,-0.20400000000000001
1747250762276530942,-0.201
1747250762284218063,-0.199
1747250762291905184,-0.201
1747250762299592305,-0.199
1747250762307279426,-0.194
1747250762314966547,-0.194
1747250762322653668,-0.194
1747250762330340789,-0.192
1747250762338027910,-0.184
1747250762345715031,-0.182
1747250762353402152,-0.182
1747250762361089273,-0.177
1747250762368776394,-0.17200000000000001
1747250762376463515,-0.169
1747250762384150636,-0.177
1747250762391837757,-0.184
1747250762399524878,-0.177
1747250762407211999,-0.147
1747250762414899120,-0.125
1747250762422586241,-0.13
1747250762430273362,-0.128
1747250762437960483,-0.11
1747250762445647604,-0.12
1747250762453334725,-0.16
1747250762461021846,-0.179
1747250762468708967,-0.169
1747250762476396088,-0.157
1747250762484083209,-0.155
1747250762491770330,-0.152
1747250762499457451,-0.147
1747250762507144572,-0.15
1747250762514831693,-0.167
1747250762522518814,-0.219
1747250762530205935,-0.31
1747250762537893056,-0.224
1747250762545580177,0.41600000000000004
1747250762553267362,1.405
1747250762560954344,1.996
1747250762568641326,1.417
1747250762576328308,-0.088
1747250762584015290,-0.777
1747250762591702272,-0.297
1747250762599389254,-0.113
1747250762607076236,-0.329
1747250762614763218,-0.265
1747250762622450200,-0.16
1747250762630137182,-0.20600000000000002
1747250762637824164,-0.194
1747250762645511146,-0.132
1747250762653198128,-0.123
1747250762660885110,-0.115
1747250762668572092,-0.081
1747250762676259074,-0.056
1747250762683946056,-0.039
1747250762691633038,-0.014
1747250762699320020,0.017
1747250762707007002,0.051000000000000004
1747250762714693984,0.08600000000000001
1747250762722380966,0.128
1747250762730067948,0.17400000000000002
1747250762737754930,0.224
1747250762745441912,0.27
1747250762753128894,0.31
1747250762760815876,0.327
1747250762768502858,0.327
1747250762776189840,0.32
1747250762783876822,0.295
1747250762791563804,0.253
1747250762799250786,0.189
1747250762806937768,0.088
1747250762814624750,-0.041
1747250762822311732,-0.16
1747250762829998714,-0.243
1747250762837685696,-0.297
1747250762845372678,-0.329
1747250762853059660,-0.34700000000000003
1747250762860746642,-0.34900000000000003
1747250762868433624,-0.337
1747250762876120606,-0.322
1747250762883807588,-0.307
1747250762891494570,-0.295
1747250762899181552,-0.28500000000000003
1747250762906868534,-0.27
1747250762914555516,-0.253
1747250762922242498,-0.243
1747250762929929480,-0.23800000000000002
1747250762937616462,-0.228
1747250762945303444,-0.219
1747250762952990426,-0.214
1747250762960677408,-0.211
1747250762968364390,-0.209
1747250762976051372,-0.20600000000000002
1747250762983738354,-0.20600000000000002
1747250762991425336,-0.20400000000000001
1747250762999112318,-0.20400000000000001
1747250763006799300,-0.20600000000000002
1747250763014486282,-0.20400000000000001
1747250763022173264,-0.196
1747250763029860246,-0.192
1747250763037547228,-0.192
1747250763045234210,-0.192
1747250763052921192,-0.184
1747250763060608174,-0.184
1747250763068295156,-0.182
1747250763075982138,-0.187
1747250763083669120,-0.189
1747250763091356102,-0.179
1747250763099043084,-0.152
1747250763106730066,-0.135
1747250763114417089,-0.135,89,678
1747250763122103932,-0.13,,684
1747250763129790775,-0.11800000000000001
1747250763137477618,-0.135
1747250763145164461,-0.17400000000000002
1747250763152851304,-0.184
1747250763160538147,-0.167
1747250763168224990,-0.16
1747250763175911833,-0.162
1747250763183598676,-0.157
1747250763191285519,-0.155
1747250763198972362,-0.157
1747250763206659205,-0.17400000000000002
1747250763214346048,-0.23600000000000002
1747250763222032891,-0.327
1747250763229719734,-0.201
1747250763237406577,0.484
1747250763245093420,1.479
1747250763252780263,2.021
1747250763260467106,1.326
1747250763268153949,-0.216
1747250763275840792,-0.785
1747250763283527635,-0.258
1747250763291214478,-0.132
1747250763298901321,-0.342
1747250763306588164,-0.253
1747250763314275007,-0.164
1747250763321961850,-0.219
1747250763329648693,-0.192
1747250763337335536,-0.13
1747250763345022379,-0.13
1747250763352709222,-0.12
1747250763360396065,-0.083
1747250763368082908,-0.061
1747250763375769751,-0.041
1747250763383456594,-0.009000000000000001
1747250763391143437,0.017
1747250763398830280,0.049
1747250763406517123,0.088
1747250763414203966,0.132
1747250763421890809,0.179
1747250763429577652,0.226
1747250763437264495,0.27
1747250763444951338,0.307
1747250763452638181,0.324
1747250763460325024,0.324
1747250763468011867,0.312
1747250763475698710,0.29
1747250763483385553,0.246
1747250763491072396,0.179
1747250763498759239,0.083
1747250763506446082,-0.044
1747250763514132925,-0.164
1747250763521819768,-0.246
1747250763529506611,-0.297
1747250763537193454,-0.334
1747250763544880297,-0.34900000000000003
1747250763552567140,-0.342
1747250763560253983,-0.332
1747250763567940826,-0.322
1747250763575627669,-0.307
1747250763583314512,-0.292
1747250763591001355,-0.273
1747250763598688198,-0.256
1747250763606375041,-0.243
1747250763614061884,-0.233
1747250763621748727,-0.226
1747250763629435570,-0.221
1747250763637122413,-0.209
1747250763644809256,-0.20600000000000002
1747250763652496099,-0.20600000000000002
1747250763660182942,-0.201
1747250763667869785,-0.196
1747250763675556638,-0.201
1747250763683243759,-0.196
1747250763690930880,-0.187
1747250763698618001,-0.182
1747250763706305122,-0.182
1747250763713992243,-0.177
1747250763721679364,-0.177
1747250763729366485,-0.179
1747250763737053606,-0.182
1747250763744740727,-0.177
1747250763752427848,-0.169
1747250763760114969,-0.169
1747250763767802090,-0.177
1747250763775489211,-0.17200000000000001
1747250763783176332,-0.145
1747250763790863453,-0.108
1747250763798550574,-0.10300000000000001
1747250763806237695,-0.11800000000000001
1747250763813924816,-0.11
1747250763821611937,-0.11
1747250763829299058,-0.14200000000000002
1747250763836986179,-0.164
1747250763844673300,-0.157
1747250763852360421,-0.15
1747250763860047542,-0.147
1747250763867734663,-0.14
1747250763875421784,-0.13
1747250763883108905,-0.137
1747250763890796026,-0.15
1747250763898483147,-0.164
1747250763906170268,-0.243
1747250763913857389,-0.278
1747250763921544510,0.132
1747250763929231631,1.038
1747250763936918752,1.7870000000000001
1747250763944605873,1.597
1747250763952292994,0.329
1747250763959980115,-0.6940000000000001
1747250763967667236,-0.46
1747250763975354357,-0.083
1747250763983041478,-0.23600000000000002
1747250763990728599,-0.258
1747250763998415720,-0.135
1747250764006102841,-0.157
1747250764013789962,-0.167
1747250764021477083,-0.10300000000000001
1747250764029164204,-0.083
1747250764036851325,-0.073
1747250764044538446,-0.041
1747250764052225567,-0.034
1747250764059912688,-0.017
1747250764067599809,0.019
1747250764075286930,0.046
1747250764082974051,0.076
1747250764090661172,0.113
1747250764098348293,0.15
1747250764106035414,0.194
1747250764113722535,0.246
1747250764121409656,0.29
1747250764129096777,0.337
1747250764136783898,0.364
1747250764144471019,0.369
1747250764152158140,0.361
1747250764159845261,0.337
1747250764167532382,0.292
1747250764175219503,0.241
1747250764182906624,0.157
1747250764190593745,0.029
1747250764198280866,-0.1
1747250764205967987,-0.189
1747250764213655108,-0.256
1747250764221342229,-0.307
1747250764229029350,-0.339
1747250764236716535,-0.337,89,690
1747250764244403656,-0.315
1747250764252090777,-0.307
1747250764259777898,-0.302
1747250764267465019,-0.28500000000000003
1747250764275152140,-0.265
1747250764282839261,-0.248
1747250764290526382,-0.243
1747250764298213503,-0.23600000000000002
1747250764305900624,-0.211
1747250764313587745,-0.201
1747250764321274866,-0.201
1747250764328961987,-0.187
1747250764336649108,-0.17200000000000001
1747250764344336229,-0.184
1747250764352023350,-0.192
1747250764359710471,-0.182
1747250764367397592,-0.177
1747250764375084713,-0.177
1747250764382771834,-0.179
1747250764390458955,-0.179
1747250764398146076,-0.17400000000000002
1747250764405833197,-0.169
1747250764413520318,-0.167
1747250764421207439,-0.169
1747250764428894560,-0.179
1747250764436581681,-0.17400000000000002
1747250764444268802,-0.152
1747250764451955923,-0.132
1747250764459643044,-0.128
1747250764467330165,-0.128
1747250764475017286,-0.11800000000000001
1747250764482704407,-0.115
1747250764490391528,-0.135
1747250764498078649,-0.167
1747250764505765770,-0.177
1747250764513452891,-0.162
1747250764521140012,-0.16
1747250764528827133,-0.16
1747250764536514254,-0.147
1747250764544201375,-0.14200000000000002
1747250764551888496,-0.16
1747250764559575617,-0.182
1747250764567262738,-0.253
1747250764574949859,-0.292
1747250764582636980,0.064
1747250764590324101,0.903
1747250764598011222,1.56
1747250764605698343,1.368
1747250764613385464,0.317
1747250764621072585,-0.615
1747250764628759706,-0.519
1747250764636446827,-0.147
1747250764644133948,-0.211
1747250764651821069,-0.248
1747250764659508190,-0.152
1747250764667195311,-0.152
1747250764674882432,-0.167
1747250764682569553,-0.12
1747250764690256674,-0.091
1747250764697943795,-0.091
1747250764705630916,-0.07100000000000001
1747250764713318037,-0.039
1747250764721005158,-0.022
1747250764728692279,-0.002
1747250764736379400,0.029
1747250764744066521,0.059000000000000004
1747250764751753642,0.08600000000000001
1747250764759440763,0.123
1747250764767127884,0.17400000000000002
1747250764774815005,0.216
1747250764782502126,0.256
1747250764790189247,0.305
1747250764797876436,0.327
1747250764805563557,0.315
1747250764813250678,0.305
1747250764820937799,0.28800000000000003
1747250764828624920,0.253
1747250764836312041,0.194
1747250764843999162,0.098
1747250764851686283,-0.022
1747250764859373404,-0.132
1747250764867060525,-0.216
1747250764874747646,-0.28300000000000003
1747250764882434767,-0.327
1747250764890121888,-0.342
1747250764897809009,-0.34400000000000003
1747250764905496130,-0.339
1747250764913183251,-0.327
1747250764920870372,-0.317
1747250764928557493,-0.3
1747250764936244614,-0.278
1747250764943931735,-0.265
1747250764951618856,-0.258
1747250764959305977,-0.243
1747250764966993098,-0.233
1747250764974680219,-0.224
1747250764982367340,-0.209
1747250764990054461,-0.199
1747250764997741582,-0.199
1747250765005428703,-0.201
1747250765013115824,-0.20400000000000001
1747250765020802945,-0.199
1747250765028490066,-0.192
1747250765036177187,-0.194
1747250765043864308,-0.196
1747250765051551429,-0.194
1747250765059238550,-0.194
1747250765066925671,-0.199
1747250765074612792,-0.196
1747250765082299913,-0.192
1747250765089987034,-0.192
1747250765097674155,-0.196
1747250765105361276,-0.194
1747250765113048397,-0.182
1747250765120735518,-0.16
1747250765128422639,-0.14200000000000002
1747250765136109760,-0.145
1747250765143796881,-0.14200000000000002
1747250765151484002,-0.13
1747250765159171123,-0.147
1747250765166858244,-0.184
1747250765174545365,-0.194
1747250765182232486,-0.177
1747250765189919607,-0.17200000000000001
1747250765197606728,-0.17400000000000002
1747250765205293849,-0.164
1747250765212980970,-0.157
1747250765220668091,-0.169
1747250765228355212,-0.192
1747250765236042333,-0.248
1747250765243729454,-0.315
1747250765251416575,-0.088
1747250765259103696,0.681
1747250765266790817,1.5110000000000001
1747250765274477938,1.659
1747250765282165059,0.78
1747250765289852180,-0.44
1747250765297539301,-0.664
1747250765305226422,-0.20600000000000002
1747250765312913543,-0.179
1747250765320600664,-0.312
1747250765328287785,-0.216
1747250765335974906,-0.169
1747250765343662027,-0.199
1747250765351349148,-0.157
1747250765359036333,-0.115,88,691
1747250765366723245,-0.11800000000000001
1747250765374410157,-0.1
1747250765382097069,-0.064
1747250765389783981,-0.046
1747250765397470893,-0.036000000000000004
1747250765405157805,-0.007
1747250765412844717,0.029
1747250765420531629,0.059000000000000004
1747250765428218541,0.088
1747250765435905453,0.132
1747250765443592365,0.184
1747250765451279277,0.224
1747250765458966189,0.263
1747250765466653101,0.297
1747250765474340013,0.31
1747250765482026925,0.3
1747250765489713837,0.28500000000000003
1747250765497400749,0.26
1747250765505087661,0.214
1747250765512774573,0.14
1747250765520461485,0.032
1747250765528148397,-0.088
1747250765535835309,-0.192
1747250765543522221,-0.26
1747250765551209133,-0.3
1747250765558896045,-0.324
1747250765566582957,-0.342
1747250765574269869,-0.332
1747250765581956781,-0.315
1747250765589643693,-0.305
1747250765597330605,-0.292
1747250765605017517,-0.275
1747250765612704429,-0.263
1747250765620391341,-0.248
1747250765628078253,-0.23600000000000002
1747250765635765165,-0.228
1747250765643452077,-0.224
1747250765651138989,-0.214
1747250765658825901,-0.20400000000000001
1747250765666512813,-0.20400000000000001
1747250765674199725,-0.20400000000000001
1747250765681886637,-0.196
1747250765689573549,-0.189
1747250765697260461,-0.189
1747250765704947373,-0.192
1747250765712634285,-0.192
1747250765720321197,-0.189
1747250765728008109,-0.189
1747250765735695021,-0.184
1747250765743381933,-0.184
1747250765751068845,-0.184
1747250765758755757,-0.177
1747250765766442669,-0.169
1747250765774129581,-0.17400000000000002
1747250765781816493,-0.184
1747250765789503405,-0.179
1747250765797190317,-0.157
1747250765804877229,-0.135
1747250765812564141,-0.135
1747250765820251053,-0.132
1747250765827937965,-0.113
1747250765835624877,-0.115
1747250765843311789,-0.147
1747250765850998701,-0.177
1747250765858685613,-0.17400000000000002
1747250765866372525,-0.164
1747250765874059437,-0.162
1747250765881746349,-0.155
1747250765889433261,-0.147
1747250765897120173,-0.145
1747250765904807085,-0.152
1747250765912493997,-0.182
1747250765920180973,-0.26
1747250765927867885,-0.295
1747250765935554797,0.064
1747250765943241709,0.928
1747250765950928621,1.71
1747250765958615533,1.6640000000000001
1747250765966302445,0.541
1747250765973989357,-0.605
1747250765981676269,-0.561
1747250765989363181,-0.125
1747250765997050093,-0.224
1747250766004737005,-0.315
1747250766012423917,-0.189
1747250766020110829,-0.17400000000000002
1747250766027797741,-0.201
1747250766035484653,-0.145
1747250766043171565,-0.113
1747250766050858477,-0.123
1747250766058545389,-0.1
1747250766066232301,-0.066
1747250766073919213,-0.046
1747250766081606125,-0.022
1747250766089293037,0.007
1747250766096979949,0.032
1747250766104666861,0.064
1747250766112353773,0.105
1747250766120040685,0.15
1747250766127727597,0.194
1747250766135414509,0.23800000000000002
1747250766143101421,0.28
1747250766150788333,0.312
1747250766158475245,0.322
1747250766166162157,0.312
1747250766173849069,0.29
1747250766181535981,0.265
1747250766189222893,0.219
1747250766196909805,0.13
1747250766204596717,0.012
1747250766212283629,-0.113
1747250766219970541,-0.20600000000000002
1747250766227657453,-0.268
1747250766235344365,-0.317
1747250766243031277,-0.34400000000000003
1747250766250718189,-0.339
1747250766258405101,-0.329
1747250766266092013,-0.322
1747250766273778925,-0.31
1747250766281465837,-0.297
1747250766289152749,-0.28300000000000003
1747250766296839661,-0.268
1747250766304526573,-0.256
1747250766312213485,-0.248
1747250766319900397,-0.23600000000000002
1747250766327587309,-0.226
1747250766335274221,-0.221
1747250766342961133,-0.216
1747250766350648045,-0.209
1747250766358334957,-0.209
1747250766366021869,-0.209
1747250766373708781,-0.201
1747250766381395693,-0.201
1747250766389082605,-0.201
1747250766396769517,-0.194
1747250766404456429,-0.192
1747250766412143341,-0.194
1747250766419830253,-0.196
1747250766427517165,-0.192
1747250766435204077,-0.187
1747250766442890989,-0.182
1747250766450577901,-0.17400000000000002
1747250766458264813,-0.17200000000000001
1747250766465951725,-0.169
1747250766473638637,-0.164
1747250766481325609,-0.17400000000000002,88,688
1747250766489012730,-0.182,,661
1747250766496699851,-0.164
1747250766504386972,-0.132
1747250766512074093,-0.12
1747250766519761214,-0.128
1747250766527448335,-0.125
1747250766535135456,-0.108
1747250766542822577,-0.12
1747250766550509698,-0.162
1747250766558196819,-0.179
1747250766565883940,-0.164
1747250766573571061,-0.16
1747250766581258182,-0.16
1747250766588945303,-0.152
1747250766596632424,-0.147
1747250766604319545,-0.147
1747250766612006666,-0.16
1747250766619693787,-0.20600000000000002
1747250766627380908,-0.3
1747250766635068029,-0.251
1747250766642755150,0.312
1747250766650442271,1.272
1747250766658129392,1.907
1747250766665816513,1.479
1747250766673503634,0.08600000000000001
1747250766681190755,-0.74
1747250766688877876,-0.379
1747250766696564997,-0.115
1747250766704252118,-0.302
1747250766711939239,-0.28
1747250766719626360,-0.16
1747250766727313481,-0.192
1747250766735000602,-0.194
1747250766742687723,-0.132
1747250766750374844,-0.11800000000000001
1747250766758061965,-0.115
1747250766765749086,-0.081
1747250766773436207,-0.051000000000000004
1747250766781123328,-0.039
1747250766788810449,-0.014
1747250766796497570,0.017
1747250766804184691,0.049
1747250766811871812,0.083
1747250766819558933,0.123
1747250766827246054,0.167
1747250766834933175,0.216
1747250766842620296,0.263
1747250766850307417,0.297
1747250766857994538,0.327
1747250766865681659,0.334
1747250766873368780,0.322
1747250766881055901,0.3
1747250766888743022,0.27
1747250766896430143,0.211
1747250766904117264,0.105
1747250766911804385,-0.022
1747250766919491506,-0.137
1747250766927178627,-0.228
1747250766934865748,-0.292
1747250766942552869,-0.329
1747250766950239990,-0.34900000000000003
1747250766957927111,-0.352
1747250766965614232,-0.339
1747250766973301353,-0.322
1747250766980988474,-0.31
1747250766988675595,-0.297
1747250766996362716,-0.28500000000000003
1747250767004049837,-0.265
1747250767011736958,-0.251
1747250767019424079,-0.23800000000000002
1747250767027111200,-0.228
1747250767034798321,-0.224
1747250767042485506,-0.216,88,671
1747250767050172627,-0.216
1747250767057859748,-0.224
1747250767065546869,-0.214
1747250767073233990,-0.20600000000000002
1747250767080921111,-0.211
1747250767088608232,-0.20600000000000002
1747250767096295353,-0.20400000000000001
1747250767103982474,-0.209
1747250767111669595,-0.20400000000000001
1747250767119356716,-0.194
1747250767127043837,-0.192
1747250767134730958,-0.189
1747250767142418079,-0.189
1747250767150105200,-0.187
1747250767157792321,-0.184
1747250767165479442,-0.177
1747250767173166563,-0.17400000000000002
1747250767180853684,-0.177
1747250767188540805,-0.17400000000000002
1747250767196227926,-0.164
1747250767203915047,-0.16
1747250767211602168,-0.167
1747250767219289289,-0.17400000000000002
1747250767226976410,-0.169
1747250767234663531,-0.155
1747250767242350652,-0.132
1747250767250037773,-0.12
1747250767257724894,-0.123
1747250767265412015,-0.115
1747250767273099136,-0.108
1747250767280786257,-0.132
1747250767288473378,-0.167
1747250767296160499,-0.169
1747250767303847620,-0.155
1747250767311534741,-0.152
1747250767319221862,-0.155
1747250767326908983,-0.145
1747250767334596104,-0.14
1747250767342283225,-0.145
1747250767349970346,-0.17400000000000002
1747250767357657467,-0.248
1747250767365344588,-0.327
1747250767373031709,-0.12
1747250767380718830,0.659
1747250767388405951,1.6440000000000001
1747250767396093072,2.008
1747250767403780193,1.093
1747250767411467314,-0.391
1747250767419154435,-0.711
1747250767426841556,-0.187
1747250767434528677,-0.177
1747250767442215798,-0.34900000000000003
1747250767449902919,-0.23600000000000002
1747250767457590040,-0.179
1747250767465277161,-0.226
1747250767472964282,-0.187
1747250767480651403,-0.14
1747250767488338524,-0.137
1747250767496025645,-0.12
1747250767503712766,-0.091
1747250767511399887,-0.073
1747250767519087008,-0.049
1747250767526774129,-0.017
1747250767534461250,0.009000000000000001
1747250767542148371,0.041
1747250767549835492,0.081
1747250767557522613,0.13
1747250767565209734,0.177
1747250767572896855,0.224
1747250767580583976,0.268
1747250767588271097,0.31
1747250767595958218,0.332
1747250767603645407,0.337
1747250767611332180,0.322
1747250767619018953,0.297
1747250767626705726,0.256
1747250767634392499,0.182
1747250767642079272,0.066
1747250767649766045,-0.066
1747250767657452818,-0.182
1747250767665139591,-0.265
1747250767672826364,-0.322
1747250767680513137,-0.359
1747250767688199910,-0.369
1747250767695886683,-0.364
1747250767703573456,-0.354
1747250767711260229,-0.339
1747250767718947002,-0.322
1747250767726633775,-0.305
1747250767734320548,-0.29
1747250767742007321,-0.275
1747250767749694094,-0.265
1747250767757380867,-0.258
1747250767765067640,-0.241
1747250767772754413,-0.228
1747250767780441186,-0.228
1747250767788127959,-0.224
1747250767795814732,-0.216
1747250767803501505,-0.214
1747250767811188278,-0.211
1747250767818875051,-0.209
1747250767826561824,-0.20600000000000002
1747250767834248597,-0.20600000000000002
1747250767841935370,-0.20400000000000001
1747250767849622143,-0.201
1747250767857308916,-0.201
1747250767864995689,-0.196
1747250767872682462,-0.192
1747250767880369235,-0.189
1747250767888056008,-0.184
1747250767895742781,-0.179
1747250767903429554,-0.17400000000000002
1747250767911116327,-0.17200000000000001
1747250767918803100,-0.167
1747250767926489873,-0.162
1747250767934176646,-0.152
1747250767941863419,-0.152
1747250767949550192,-0.167
1747250767957236965,-0.177
1747250767964923738,-0.157
1747250767972610511,-0.125
1747250767980297284,-0.1
1747250767987984057,-0.105
1747250767995670830,-0.108
1747250768003357603,-0.098
1747250768011044376,-0.11
1747250768018731149,-0.145
1747250768026417922,-0.164
1747250768034104695,-0.16
1747250768041791468,-0.145
1747250768049478241,-0.135
1747250768057165014,-0.13
1747250768064851787,-0.128
1747250768072538560,-0.128
1747250768080225333,-0.147
1747250768087912106,-0.201
1747250768095598879,-0.302
1747250768103285652,-0.221
1747250768110972425,0.41100000000000003
1747250768118659198,1.3980000000000001
1747250768126345971,1.939
1747250768134032744,1.314
1747250768141719517,-0.12
1747250768149406290,-0.74
1747250768157093063,-0.28500000000000003
1747250768164779873,-0.113,88,683
1747250768172466925,-0.292,,705
1747250768180153977,-0.226
1747250768187841029,-0.14
1747250768195528081,-0.187
1747250768203215133,-0.164
1747250768210902185,-0.10300000000000001
1747250768218589237,-0.098
1747250768226276289,-0.091
1747250768233963341,-0.059000000000000004
1747250768241650393,-0.036000000000000004
1747250768249337445,-0.009000000000000001
1747250768257024497,0.022
1747250768264711549,0.039
1747250768272398601,0.066
1747250768280085653,0.11
1747250768287772705,0.157
1747250768295459757,0.20400000000000001
1747250768303146809,0.258
1747250768310833861,0.307
1747250768318520913,0.34700000000000003
1747250768326207965,0.371
1747250768333895017,0.379
1747250768341582069,0.371
1747250768349269121,0.34900000000000003
1747250768356956173,0.31
1747250768364643225,0.241
1747250768372330277,0.132
1747250768380017329,-0.002
1747250768387704381,-0.125
1747250768395391433,-0.219
1747250768403078485,-0.28500000000000003
1747250768410765537,-0.327
1747250768418452589,-0.34400000000000003
1747250768426139641,-0.34700000000000003
1747250768433826693,-0.339
1747250768441513745,-0.329
1747250768449200797,-0.315
1747250768456887849,-0.295
1747250768464574901,-0.275
1747250768472261953,-0.265
1747250768479949005,-0.256
1747250768487636057,-0.241
1747250768495323109,-0.226
1747250768503010161,-0.219
1747250768510697213,-0.216
1747250768518384265,-0.199
1747250768526071317,-0.187
1747250768533758369,-0.192
1747250768541445421,-0.194
1747250768549132473,-0.187
1747250768556819525,-0.189
1747250768564506577,-0.192
1747250768572193629,-0.187
1747250768579880681,-0.187
1747250768587567733,-0.182
1747250768595254785,-0.182
1747250768602941837,-0.187
1747250768610628889,-0.184
1747250768618315941,-0.17400000000000002
1747250768626002993,-0.169
1747250768633690045,-0.177
1747250768641377097,-0.177
1747250768649064149,-0.164
1747250768656751201,-0.16
1747250768664438253,-0.177
1747250768672125305,-0.182
1747250768679812357,-0.167
1747250768687499409,-0.135
1747250768695186461,-0.11800000000000001
1747250768702873513,-0.12
1747250768710560565,-0.113
1747250768718247617,-0.105
1747250768725934683,-0.132
1747250768733621804,-0.169
1747250768741308925,-0.177
1747250768748996046,-0.169
1747250768756683167,-0.157
1747250768764370288,-0.152
1747250768772057409,-0.152
1747250768779744530,-0.15
1747250768787431651,-0.15
1747250768795118772,-0.167
1747250768802805893,-0.219
1747250768810493014,-0.3
1747250768818180135,-0.209
1747250768825867256,0.40800000000000003
1747250768833554377,1.297
1747250768841241498,1.676
1747250768848928619,1.041
1747250768856615740,-0.196
1747250768864302861,-0.6960000000000001
1747250768871989982,-0.295
1747250768879677103,-0.14
1747250768887364224,-0.28500000000000003
1747250768895051345,-0.226
1747250768902738466,-0.145
1747250768910425587,-0.17400000000000002
1747250768918112708,-0.157
1747250768925799829,-0.113
1747250768933486950,-0.108
1747250768941174071,-0.096
1747250768948861192,-0.066
1747250768956548313,-0.051000000000000004
1747250768964235434,-0.036000000000000004
1747250768971922555,-0.002
1747250768979609676,0.034
1747250768987296797,0.061
1747250768994983918,0.088
1747250769002671039,0.135
1747250769010358160,0.187
1747250769018045281,0.233
1747250769025732402,0.28300000000000003
1747250769033419523,0.322
1747250769041106644,0.34400000000000003
1747250769048793765,0.34400000000000003
1747250769056480886,0.332
1747250769064168007,0.307
1747250769071855128,0.265
1747250769079542249,0.199
1747250769087229370,0.093
1747250769094916491,-0.036000000000000004
1747250769102603612,-0.162
1747250769110290733,-0.253
1747250769117977854,-0.31
1747250769125664975,-0.339
1747250769133352096,-0.356
1747250769141039217,-0.361
1747250769148726338,-0.354
1747250769156413459,-0.337
1747250769164100580,-0.324
1747250769171787701,-0.317
1747250769179474822,-0.3
1747250769187161943,-0.28
1747250769194849064,-0.27
1747250769202536185,-0.26
1747250769210223306,-0.246
1747250769217910427,-0.233
1747250769225597548,-0.224
1747250769233284669,-0.216
1747250769240971790,-0.214
1747250769248658911,-0.20600000000000002
1747250769256346032,-0.201
1747250769264033153,-0.20400000000000001
1747250769271720274,-0.20400000000000001
1747250769279407395,-0.201
1747250769287094580,-0.199,88,735
1747250769294781701,-0.199
1747250769302468822,-0.199
1747250769310155943,-0.196
1747250769317843064,-0.196
1747250769325530185,-0.194
1747250769333217306,-0.189
1747250769340904427,-0.189
1747250769348591548,-0.187
1747250769356278669,-0.179
1747250769363965790,-0.179
1747250769371652911,-0.182
1747250769379340032,-0.187
1747250769387027153,-0.192
1747250769394714274,-0.177
1747250769402401395,-0.145
1747250769410088516,-0.13
1747250769417775637,-0.14
1747250769425462758,-0.135
1747250769433149879,-0.11800000000000001
1747250769440837000,-0.135
1747250769448524121,-0.169
1747250769456211242,-0.182
1747250769463898363,-0.17200000000000001
1747250769471585484,-0.169
1747250769479272605,-0.169
1747250769486959726,-0.16
1747250769494646847,-0.155
1747250769502333968,-0.16
1747250769510021089,-0.17400000000000002
1747250769517708210,-0.224
1747250769525395331,-0.31
1747250769533082452,-0.241
1747250769540769573,0.354
1747250769548456694,1.297
1747250769556143815,1.848
1747250769563830936,1.358
1747250769571518057,0.0
1747250769579205178,-0.748
1747250769586892299,-0.371
1747250769594579420,-0.13
1747250769602266541,-0.305
1747250769609953662,-0.28300000000000003
1747250769617640783,-0.177
1747250769625327904,-0.20600000000000002
1747250769633015025,-0.201
1747250769640702146,-0.145
1747250769648389267,-0.132
1747250769656076388,-0.125
1747250769663763509,-0.091
1747250769671450630,-0.07100000000000001
1747250769679137751,-0.054
1747250769686824872,-0.024
1747250769694511993,0.004
1747250769702199114,0.032
1747250769709886235,0.068
1747250769717573356,0.115
1747250769725260477,0.162
1747250769732947598,0.211
1747250769740634719,0.26
1747250769748321840,0.305
1747250769756008961,0.334
1747250769763696082,0.342
1747250769771383203,0.332
1747250769779070324,0.312
1747250769786757445,0.28
1747250769794444566,0.219
1747250769802131687,0.113
1747250769809818808,-0.019
1747250769817505929,-0.14
1747250769825193050,-0.233
1747250769832880171,-0.302
1747250769840567292,-0.342
1747250769848254477,-0.359
1747250769855941529,-0.359
1747250769863628581,-0.352
1747250769871315633,-0.342
1747250769879002685,-0.329
1747250769886689737,-0.315
1747250769894376789,-0.297
1747250769902063841,-0.28300000000000003
1747250769909750893,-0.27
1747250769917437945,-0.258
1747250769925124997,-0.251
1747250769932812049,-0.241
1747250769940499101,-0.231
1747250769948186153,-0.224
1747250769955873205,-0.226
1747250769963560257,-0.224
1747250769971247309,-0.219
1747250769978934361,-0.216
1747250769986621413,-0.216
1747250769994308465,-0.211
1747250770001995517,-0.20600000000000002
1747250770009682569,-0.20600000000000002
1747250770017369621,-0.20600000000000002
1747250770025056673,-0.199
1747250770032743725,-0.199
1747250770040430777,-0.199
1747250770048117829,-0.192
1747250770055804881,-0.189
1747250770063491933,-0.192
1747250770071178985,-0.187
1747250770078866037,-0.182
1747250770086553089,-0.179
1747250770094240141,-0.177
1747250770101927193,-0.179
1747250770109614245,-0.187
1747250770117301297,-0.187
1747250770124988349,-0.169
1747250770132675401,-0.14200000000000002
1747250770140362453,-0.128
1747250770148049505,-0.128
1747250770155736557,-0.11800000000000001
1747250770163423609,-0.113
1747250770171110661,-0.14
1747250770178797713,-0.17400000000000002
1747250770186484765,-0.182
1747250770194171817,-0.169
1747250770201858869,-0.167
1747250770209545921,-0.164
1747250770217232973,-0.157
1747250770224920025,-0.152
1747250770232607077,-0.155
1747250770240294129,-0.177
1747250770247981181,-0.23800000000000002
1747250770255668233,-0.327
1747250770263355285,-0.182
1747250770271042337,0.529
1747250770278729389,1.528
1747250770286416441,2.023
1747250770294103493,1.302
1747250770301790545,-0.211
1747250770309477597,-0.772
1747250770317164649,-0.268
1747250770324851701,-0.14200000000000002
1747250770332538753,-0.34400000000000003
1747250770340225805,-0.265
1747250770347912857,-0.177
1747250770355599909,-0.219
1747250770363286961,-0.194
1747250770370974013,-0.14200000000000002
1747250770378661065,-0.137
1747250770386348117,-0.12
1747250770394035169,-0.08600000000000001
1747250770401722221,-0.066
1747250770409409291,-0.046,88,731
1747250770417096064,-0.017
1747250770424782837,0.017
1747250770432469610,0.051000000000000004
1747250770440156383,0.088
1747250770447843156,0.132
1747250770455529929,0.184
1747250770463216702,0.241
1747250770470903475,0.292
1747250770478590248,0.334
1747250770486277021,0.361
1747250770493963794,0.371
1747250770501650567,0.366
1747250770509337340,0.34400000000000003
1747250770517024113,0.302
1747250770524710886,0.231
1747250770532397659,0.12
1747250770540084432,-0.019
1747250770547771205,-0.147
1747250770555457978,-0.243
1747250770563144751,-0.307
1747250770570831524,-0.34900000000000003
1747250770578518297,-0.366
1747250770586205070,-0.369
1747250770593891843,-0.364
1747250770601578616,-0.34900000000000003
1747250770609265389,-0.332
1747250770616952162,-0.315
1747250770624638935,-0.302
1747250770632325708,-0.28800000000000003
1747250770640012481,-0.27
1747250770647699254,-0.258
1747250770655386027,-0.251
1747250770663072800,-0.243
1747250770670759573,-0.233
1747250770678446346,-0.226
1747250770686133119,-0.221
1747250770693819892,-0.219
1747250770701506665,-0.219
1747250770709193438,-0.216
1747250770716880211,-0.214
1747250770724566984,-0.211
1747250770732253757,-0.20600000000000002
1747250770739940530,-0.20400000000000001
1747250770747627303,-0.20600000000000002
1747250770755314076,-0.20600000000000002
1747250770763000849,-0.201
1747250770770687622,-0.201
1747250770778374395,-0.199
1747250770786061168,-0.187
1747250770793747941,-0.179
1747250770801434714,-0.179
1747250770809121487,-0.182
1747250770816808260,-0.182
1747250770824495033,-0.182
1747250770832181806,-0.187
1747250770839868579,-0.179
1747250770847555352,-0.15
1747250770855242125,-0.13
1747250770862928898,-0.125
1747250770870615671,-0.113
1747250770878302444,-0.108
1747250770885989217,-0.132
1747250770893675990,-0.167
1747250770901362763,-0.179
1747250770909049536,-0.17200000000000001
1747250770916736309,-0.162
1747250770924423082,-0.157
1747250770932109855,-0.155
1747250770939796628,-0.15
1747250770947483401,-0.147
1747250770955170174,-0.162
1747250770962856947,-0.216
1747250770970543753,-0.312,86,714
1747250770978230874,-0.224,,716
1747250770985917995,0.423
1747250770993605116,1.395
1747250771001292237,1.925
1747250771008979358,1.326
1747250771016666479,-0.11
1747250771024353600,-0.763
1747250771032040721,-0.305
1747250771039727842,-0.125
1747250771047414963,-0.324
1747250771055102084,-0.256
1747250771062789205,-0.147
1747250771070476326,-0.196
1747250771078163447,-0.187
1747250771085850568,-0.125
1747250771093537689,-0.115
1747250771101224810,-0.10300000000000001
1747250771108911931,-0.07100000000000001
1747250771116599052,-0.054
1747250771124286173,-0.034
1747250771131973294,0.002
1747250771139660415,0.036000000000000004
1747250771147347536,0.064
1747250771155034657,0.105
1747250771162721778,0.16
1747250771170408899,0.201
1747250771178096020,0.251
1747250771185783141,0.312
1747250771193470262,0.364
1747250771201157383,0.391
1747250771208844504,0.396
1747250771216531625,0.384
1747250771224218746,0.364
1747250771231905867,0.337
1747250771239592988,0.268
1747250771247280109,0.135
1747250771254967230,-0.017
1747250771262654351,-0.132
1747250771270341472,-0.216
1747250771278028593,-0.295
1747250771285715714,-0.354
1747250771293402835,-0.366
1747250771301089956,-0.356
1747250771308777077,-0.354
1747250771316464198,-0.34900000000000003
1747250771324151319,-0.329
1747250771331838440,-0.31
1747250771339525561,-0.3
1747250771347212682,-0.28500000000000003
1747250771354899803,-0.265
1747250771362586924,-0.248
1747250771370274045,-0.23600000000000002
1747250771377961166,-0.231
1747250771385648287,-0.228
1747250771393335408,-0.224
1747250771401022529,-0.224
1747250771408709650,-0.211
1747250771416396771,-0.196
1747250771424083892,-0.192
1747250771431771013,-0.199
1747250771439458134,-0.20400000000000001
1747250771447145255,-0.201
1747250771454832376,-0.201
1747250771462519497,-0.20400000000000001
1747250771470206618,-0.199
1747250771477893739,-0.182
1747250771485580860,-0.17200000000000001
1747250771493267981,-0.184
1747250771500955102,-0.187
1747250771508642223,-0.162
1747250771516329344,-0.169
1747250771524016465,-0.199
1747250771531703654,-0.192
1747250771539390775,-0.157
1747250771547077896,-0.14
1747250771554765017,-0.135
1747250771562452138,-0.128
1747250771570139259,-0.11
1747250771577826380,-0.115
1747250771585513501,-0.145
1747250771593200622,-0.169
1747250771600887743,-0.17400000000000002
1747250771608574864,-0.167
1747250771616261985,-0.164
1747250771623949106,-0.167
1747250771631636227,-0.157
1747250771639323348,-0.147
1747250771647010469,-0.155
1747250771654697590,-0.17200000000000001
1747250771662384711,-0.20400000000000001
1747250771670071832,-0.28
1747250771677758953,-0.219
1747250771685446074,0.369
1747250771693133195,1.223
1747250771700820316,1.553
1747250771708507437,0.987
1747250771716194558,-0.105
1747250771723881679,-0.649
1747250771731568800,-0.34700000000000003
1747250771739255921,-0.15
1747250771746943042,-0.251
1747250771754630163,-0.219
1747250771762317284,-0.152
1747250771770004405,-0.167
1747250771777691526,-0.147
1747250771785378647,-0.105
1747250771793065768,-0.096
1747250771800752889,-0.081
1747250771808440010,-0.049
1747250771816127131,-0.027
1747250771823814252,-0.017
1747250771831501373,-0.002
1747250771839188494,0.034
1747250771846875615,0.07100000000000001
1747250771854562736,0.105
1747250771862249857,0.147
1747250771869936978,0.196
1747250771877624099,0.246
1747250771885311220,0.295
1747250771892998341,0.329
1747250771900685462,0.34900000000000003
1747250771908372583,0.361
1747250771916059704,0.356
1747250771923746825,0.329
1747250771931433946,0.28800000000000003
1747250771939121067,0.216
1747250771946808188,0.108
1747250771954495309,-0.019
1747250771962182430,-0.14
1747250771969869551,-0.23800000000000002
1747250771977556672,-0.305
1747250771985243793,-0.337
1747250771992930914,-0.34900000000000003
1747250772000618035,-0.354
1747250772008305156,-0.34900000000000003
1747250772015992277,-0.332
1747250772023679398,-0.32
1747250772031366519,-0.305
1747250772039053640,-0.292
1747250772046740761,-0.28
1747250772054427882,-0.265
1747250772062115003,-0.253
1747250772069802124,-0.243
1747250772077489245,-0.233
1747250772085176366,-0.224
1747250772092863551,-0.214,86,729
1747250772100550672,-0.214
1747250772108237793,-0.209
1747250772115924914,-0.201
1747250772123612035,-0.196
1747250772131299156,-0.192
1747250772138986277,-0.194
1747250772146673398,-0.20600000000000002
1747250772154360519,-0.201
1747250772162047640,-0.192
1747250772169734761,-0.196
1747250772177421882,-0.199
1747250772185109003,-0.192
1747250772192796124,-0.194
1747250772200483245,-0.196
1747250772208170366,-0.194
1747250772215857487,-0.189
1747250772223544608,-0.17200000000000001
1747250772231231729,-0.147
1747250772238918850,-0.14200000000000002
1747250772246605971,-0.14200000000000002
1747250772254293092,-0.137
1747250772261980213,-0.152
1747250772269667334,-0.184
1747250772277354455,-0.199
1747250772285041576,-0.189
1747250772292728697,-0.182
1747250772300415818,-0.184
1747250772308102939,-0.179
1747250772315790060,-0.169
1747250772323477181,-0.164
1747250772331164302,-0.177
1747250772338851423,-0.20600000000000002
1747250772346538544,-0.278
1747250772354225665,-0.28800000000000003
1747250772361912786,0.13
1747250772369599907,0.967
1747250772377287028,1.553
1747250772384974149,1.326
1747250772392661270,0.278
1747250772400348391,-0.642
1747250772408035512,-0.536
1747250772415722633,-0.167
1747250772423409754,-0.243
1747250772431096875,-0.292
1747250772438783996,-0.189
1747250772446471117,-0.182
1747250772454158238,-0.199
1747250772461845359,-0.152
1747250772469532480,-0.128
1747250772477219601,-0.125
1747250772484906722,-0.1
1747250772492593843,-0.07100000000000001
1747250772500280964,-0.056
1747250772507968085,-0.036000000000000004
1747250772515655206,-0.009000000000000001
1747250772523342327,0.017
1747250772531029448,0.049
1747250772538716569,0.088
1747250772546403690,0.13
1747250772554090811,0.177
1747250772561777932,0.224
1747250772569465053,0.263
1747250772577152174,0.28800000000000003
1747250772584839295,0.297
1747250772592526416,0.28500000000000003
1747250772600213537,0.268
1747250772607900658,0.246
1747250772615587779,0.194
1747250772623274900,0.098
1747250772630962021,-0.017
1747250772638649142,-0.13
1747250772646336263,-0.231
1747250772654023448,-0.295
1747250772661710151,-0.324
1747250772669396854,-0.34400000000000003
1747250772677083557,-0.354
1747250772684770260,-0.34900000000000003
1747250772692456963,-0.337
1747250772700143666,-0.322
1747250772707830369,-0.312
1747250772715517072,-0.297
1747250772723203775,-0.278
1747250772730890478,-0.265
1747250772738577181,-0.258
1747250772746263884,-0.246
1747250772753950587,-0.23600000000000002
1747250772761637290,-0.233
1747250772769323993,-0.224
1747250772777010696,-0.214
1747250772784697399,-0.214
1747250772792384102,-0.211
1747250772800070805,-0.20600000000000002
1747250772807757508,-0.20400000000000001
1747250772815444211,-0.20600000000000002
1747250772823130914,-0.201
1747250772830817617,-0.196
1747250772838504320,-0.196
1747250772846191023,-0.20400000000000001
1747250772853877726,-0.199
1747250772861564429,-0.187
1747250772869251132,-0.182
1747250772876937835,-0.182
1747250772884624538,-0.187
1747250772892311241,-0.189
1747250772899997944,-0.187
1747250772907684647,-0.184
1747250772915371350,-0.184
1747250772923058053,-0.17200000000000001
1747250772930744756,-0.14200000000000002
1747250772938431459,-0.13
1747250772946118162,-0.135
1747250772953804865,-0.13
1747250772961491568,-0.128
1747250772969178271,-0.152
1747250772976864974,-0.184
1747250772984551677,-0.189
1747250772992238380,-0.17200000000000001
1747250772999925083,-0.164
1747250773007611786,-0.167
1747250773015298489,-0.162
1747250773022985192,-0.157
1747250773030671895,-0.16
1747250773038358598,-0.179
1747250773046045301,-0.241
1747250773053732004,-0.317
1747250773061418707,-0.14
1747250773069105410,0.585
1747250773076792113,1.499
1747250773084478816,1.841
1747250773092165519,1.073
1747250773099852222,-0.292
1747250773107538925,-0.721
1747250773115225628,-0.248
1747250773122912331,-0.16
1747250773130599034,-0.334
1747250773138285737,-0.253
1747250773145972440,-0.179
1747250773153659143,-0.219
1747250773161345846,-0.189
1747250773169032549,-0.14
1747250773176719252,-0.135
1747250773184405955,-0.12
1747250773192092658,-0.08600000000000001
1747250773199779361,-0.061
1747250773207466064,-0.041
1747250773215152827,-0.014,85,716
1747250773222839948,0.014,,699
1747250773230527069,0.041
1747250773238214190,0.073
1747250773245901311,0.123
1747250773253588432,0.17400000000000002
1747250773261275553,0.224
1747250773268962674,0.27
1747250773276649795,0.31
1747250773284336916,0.334
1747250773292024037,0.342
1747250773299711158,0.332
1747250773307398279,0.31
1747250773315085400,0.27
1747250773322772521,0.199
1747250773330459642,0.083
1747250773338146763,-0.054
1747250773345833884,-0.17400000000000002
1747250773353521005,-0.26
1747250773361208126,-0.32
1747250773368895247,-0.34700000000000003
1747250773376582368,-0.356
1747250773384269489,-0.361
1747250773391956610,-0.354
1747250773399643731,-0.342
1747250773407330852,-0.327
1747250773415017973,-0.305
1747250773422705094,-0.28800000000000003
1747250773430392215,-0.28
1747250773438079336,-0.27
1747250773445766457,-0.256
1747250773453453578,-0.241
1747250773461140699,-0.233
1747250773468827820,-0.23600000000000002
1747250773476514941,-0.23800000000000002
1747250773484202062,-0.231
1747250773491889183,-0.226
1747250773499576304,-0.221
1747250773507263425,-0.219
1747250773514950546,-0.216
1747250773522637667,-0.216
1747250773530324788,-0.211
1747250773538011909,-0.211
1747250773545699030,-0.211
1747250773553386151,-0.209
1747250773561073272,-0.201
1747250773568760393,-0.196
1747250773576447514,-0.196
1747250773584134635,-0.194
1747250773591821756,-0.184
1747250773599508877,-0.179
1747250773607195998,-0.182
1747250773614883119,-0.184
1747250773622570240,-0.184
1747250773630257361,-0.189
1747250773637944482,-0.179
1747250773645631603,-0.152
1747250773653318724,-0.132
1747250773661005845,-0.132
1747250773668692966,-0.128
1747250773676380087,-0.11800000000000001
1747250773684067208,-0.135
1747250773691754329,-0.17400000000000002
1747250773699441450,-0.187
1747250773707128571,-0.17400000000000002
1747250773714815692,-0.167
1747250773722502813,-0.164
1747250773730189934,-0.157
1747250773737877055,-0.157
1747250773745564176,-0.155
1747250773753251297,-0.162
1747250773760938418,-0.201
1747250773768625539,-0.295
1747250773776312724,-0.29
1747250773783999845,0.201
1747250773791686966,1.157
1747250773799374087,1.895
1747250773807061208,1.6440000000000001
1747250773814748329,0.295
1747250773822435450,-0.733
1747250773830122571,-0.47000000000000003
1747250773837809692,-0.11
1747250773845496813,-0.28800000000000003
1747250773853183934,-0.317
1747250773860871055,-0.184
1747250773868558176,-0.20600000000000002
1747250773876245297,-0.221
1747250773883932418,-0.155
1747250773891619539,-0.13
1747250773899306660,-0.135
1747250773906993781,-0.105
1747250773914680902,-0.076
1747250773922368023,-0.056
1747250773930055144,-0.034
1747250773937742265,-0.007
1747250773945429386,0.027
1747250773953116507,0.068
1747250773960803628,0.11
1747250773968490749,0.152
1747250773976177870,0.201
1747250773983864991,0.258
1747250773991552112,0.302
1747250773999239233,0.332
1747250774006926354,0.342
1747250774014613475,0.342
1747250774022300596,0.329
1747250774029987717,0.295
1747250774037674838,0.231
1747250774045361959,0.132
1747250774053049080,0.004
1747250774060736201,-0.11800000000000001
1747250774068423322,-0.221
1747250774076110443,-0.29
1747250774083797564,-0.332
1747250774091484685,-0.354
1747250774099171806,-0.364
1747250774106858927,-0.356
1747250774114546048,-0.342
1747250774122233169,-0.332
1747250774129920290,-0.317
1747250774137607411,-0.3
1747250774145294532,-0.28800000000000003
1747250774152981653,-0.27
1747250774160668774,-0.253
1747250774168355895,-0.246
1747250774176043016,-0.23800000000000002
1747250774183730137,-0.231
1747250774191417258,-0.231
1747250774199104379,-0.226
1747250774206791500,-0.219
1747250774214478621,-0.214
1747250774222165742,-0.211
1747250774229852863,-0.211
1747250774237539984,-0.201
1747250774245227105,-0.194
1747250774252914226,-0.20400000000000001
1747250774260601347,-0.209
1747250774268288468,-0.199
1747250774275975589,-0.196
1747250774283662710,-0.199
1747250774291349831,-0.196
1747250774299036952,-0.187
1747250774306724073,-0.184
1747250774314411194,-0.189
1747250774322098315,-0.182
1747250774329785436,-0.167
1747250774337472621,-0.167,85,680
1747250774345159742,-0.177
1747250774352846863,-0.184
1747250774360533984,-0.17400000000000002
1747250774368221105,-0.152
1747250774375908226,-0.13
1747250774383595347,-0.123
1747250774391282468,-0.11800000000000001
1747250774398969589,-0.108
1747250774406656710,-0.12
1747250774414343831,-0.155
1747250774422030952,-0.17200000000000001
1747250774429718073,-0.164
1747250774437405194,-0.16
1747250774445092315,-0.16
1747250774452779436,-0.16
1747250774460466557,-0.15
1747250774468153678,-0.137
1747250774475840799,-0.147
1747250774483527920,-0.179
1747250774491215041,-0.231
1747250774498902162,-0.302
1747250774506589283,-0.13
1747250774514276404,0.612
1747250774521963525,1.526
1747250774529650646,1.7650000000000001
1747250774537337767,0.883
1747250774545024888,-0.401
1747250774552712009,-0.667
1747250774560399130,-0.199
1747250774568086251,-0.157
1747250774575773372,-0.292
1747250774583460493,-0.196
1747250774591147614,-0.14200000000000002
1747250774598834735,-0.17200000000000001
1747250774606521856,-0.135
1747250774614208977,-0.098
1747250774621896098,-0.1
1747250774629583219,-0.081
1747250774637270340,-0.049
1747250774644957461,-0.032
1747250774652644582,0.0
1747250774660331703,0.034
1747250774668018824,0.056
1747250774675705945,0.093
1747250774683393066,0.14200000000000002
1747250774691080187,0.182
1747250774698767308,0.226
1747250774706454429,0.28500000000000003
1747250774714141550,0.34400000000000003
1747250774721828671,0.381
1747250774729515792,0.41100000000000003
1747250774737202913,0.423
1747250774744890034,0.406
1747250774752577155,0.371
1747250774760264276,0.327
1747250774767951397,0.246
1747250774775638518,0.12
1747250774783325639,-0.019
1747250774791012760,-0.14200000000000002
1747250774798699881,-0.23600000000000002
1747250774806387002,-0.31
1747250774814074123,-0.34700000000000003
1747250774821761244,-0.352
1747250774829448365,-0.354
1747250774837135486,-0.354
1747250774844822607,-0.334
1747250774852509728,-0.312
1747250774860196849,-0.297
1747250774867883970,-0.28800000000000003
1747250774875571091,-0.275
1747250774883258212,-0.256
1747250774890945333,-0.241
1747250774898632522,-0.233
1747250774906319365,-0.224
1747250774914006208,-0.214
1747250774921693051,-0.20400000000000001
1747250774929379894,-0.196
1747250774937066737,-0.196
1747250774944753580,-0.194
1747250774952440423,-0.189
1747250774960127266,-0.194
1747250774967814109,-0.189
1747250774975500952,-0.17200000000000001
1747250774983187795,-0.182
1747250774990874638,-0.201
1747250774998561481,-0.194
1747250775006248324,-0.177
1747250775013935167,-0.17200000000000001
1747250775021622010,-0.17400000000000002
1747250775029308853,-0.182
1747250775036995696,-0.179
1747250775044682539,-0.177
1747250775052369382,-0.17400000000000002
1747250775060056225,-0.14200000000000002
1747250775067743068,-0.11
1747250775075429911,-0.11800000000000001
1747250775083116754,-0.13
1747250775090803597,-0.123
1747250775098490440,-0.13
1747250775106177283,-0.167
1747250775113864126,-0.17400000000000002
1747250775121550969,-0.162
1747250775129237812,-0.167
1747250775136924655,-0.164
1747250775144611498,-0.147
1747250775152298341,-0.145
1747250775159985184,-0.147
1747250775167672027,-0.155
1747250775175358870,-0.182
1747250775183045713,-0.263
1747250775190732556,-0.268
1747250775198419399,0.194
1747250775206106242,1.053
1747250775213793085,1.467
1747250775221479928,0.994
1747250775229166771,0.029
1747250775236853614,-0.58
1747250775244540457,-0.433
1747250775252227300,-0.177
1747250775259914143,-0.201
1747250775267600986,-0.189
1747250775275287829,-0.125
1747250775282974672,-0.132
1747250775290661515,-0.128
1747250775298348358,-0.08600000000000001
1747250775306035201,-0.066
1747250775313722044,-0.061
1747250775321408887,-0.041
1747250775329095730,-0.014
1747250775336782573,0.014
1747250775344469416,0.041
1747250775352156259,0.07100000000000001
1747250775359843102,0.10300000000000001
1747250775367529945,0.137
1747250775375216788,0.179
1747250775382903631,0.23600000000000002
1747250775390590474,0.29
1747250775398277317,0.337
1747250775405964160,0.384
1747250775413651003,0.41600000000000004
1747250775421337846,0.418
1747250775429024689,0.406
1747250775436711532,0.379
1747250775444398375,0.332
1747250775452085218,0.265
1747250775459772075,0.16,86,704
1747250775467459057,0.012,,719
1747250775475146039,-0.135
1747250775482833021,-0.233
1747250775490520003,-0.292
1747250775498206985,-0.342
1747250775505893967,-0.364
1747250775513580949,-0.361
1747250775521267931,-0.359
1747250775528954913,-0.34900000000000003
1747250775536641895,-0.329
1747250775544328877,-0.312
1747250775552015859,-0.302
1747250775559702841,-0.295
1747250775567389823,-0.278
1747250775575076805,-0.263
1747250775582763787,-0.256
1747250775590450769,-0.23800000000000002
1747250775598137751,-0.224
1747250775605824733,-0.226
1747250775613511715,-0.226
1747250775621198697,-0.214
1747250775628885679,-0.209
1747250775636572661,-0.20600000000000002
1747250775644259643,-0.20400000000000001
1747250775651946625,-0.209
1747250775659633607,-0.209
1747250775667320589,-0.211
1747250775675007571,-0.214
1747250775682694553,-0.209
1747250775690381535,-0.20400000000000001
1747250775698068517,-0.209
1747250775705755499,-0.216
1747250775713442481,-0.219
1747250775721129463,-0.209
1747250775728816445,-0.177
1747250775736503427,-0.16
1747250775744190409,-0.17200000000000001
1747250775751877391,-0.164
1747250775759564373,-0.145
1747250775767251355,-0.169
1747250775774938337,-0.20600000000000002
1747250775782625319,-0.216
1747250775790312301,-0.209
1747250775797999283,-0.20600000000000002
1747250775805686265,-0.201
1747250775813373247,-0.199
1747250775821060229,-0.194
1747250775828747211,-0.189
1747250775836434193,-0.196
1747250775844121175,-0.228
1747250775851808157,-0.305
1747250775859495139,-0.329
1747250775867182121,0.059000000000000004
1747250775874869103,0.903
1747250775882556085,1.5090000000000001
1747250775890243067,1.309
1747250775897930049,0.342
1747250775905617031,-0.583
1747250775913304013,-0.585
1747250775920990995,-0.226
1747250775928677977,-0.248
1747250775936364959,-0.3
1747250775944051941,-0.214
1747250775951738923,-0.196
1747250775959425905,-0.209
1747250775967112887,-0.169
1747250775974799869,-0.145
1747250775982486851,-0.14
1747250775990173833,-0.115
1747250775997860815,-0.091
1747250776005547797,-0.076
1747250776013234779,-0.051000000000000004
1747250776020921798,-0.019,85,726
1747250776028608919,0.004
1747250776036296040,0.032
1747250776043983161,0.073
1747250776051670282,0.12
1747250776059357403,0.164
1747250776067044524,0.209
1747250776074731645,0.251
1747250776082418766,0.275
1747250776090105887,0.28500000000000003
1747250776097793008,0.28
1747250776105480129,0.263
1747250776113167250,0.233
1747250776120854371,0.179
1747250776128541492,0.096
1747250776136228613,-0.022
1747250776143915734,-0.147
1747250776151602855,-0.241
1747250776159289976,-0.297
1747250776166977097,-0.337
1747250776174664218,-0.356
1747250776182351339,-0.359
1747250776190038460,-0.354
1747250776197725581,-0.34400000000000003
1747250776205412702,-0.334
1747250776213099823,-0.322
1747250776220786944,-0.302
1747250776228474065,-0.28500000000000003
1747250776236161186,-0.273
1747250776243848307,-0.263
1747250776251535428,-0.251
1747250776259222549,-0.241
1747250776266909670,-0.231
1747250776274596791,-0.228
1747250776282283912,-0.228
1747250776289971033,-0.219
1747250776297658154,-0.209
1747250776305345275,-0.209
1747250776313032396,-0.211
1747250776320719517,-0.20600000000000002
1747250776328406638,-0.20600000000000002
1747250776336093759,-0.20600000000000002
1747250776343780880,-0.20400000000000001
1747250776351468001,-0.20400000000000001
1747250776359155122,-0.199
1747250776366842243,-0.196
1747250776374529364,-0.192
1747250776382216485,-0.189
1747250776389903606,-0.189
1747250776397590727,-0.187
1747250776405277848,-0.187
1747250776412964969,-0.192
1747250776420652090,-0.196
1747250776428339211,-0.184
1747250776436026332,-0.157
1747250776443713453,-0.14200000000000002
1747250776451400574,-0.14200000000000002
1747250776459087695,-0.137
1747250776466774816,-0.128
1747250776474461937,-0.14200000000000002
1747250776482149058,-0.17400000000000002
1747250776489836179,-0.192
1747250776497523300,-0.184
1747250776505210421,-0.177
1747250776512897542,-0.17400000000000002
1747250776520584663,-0.167
1747250776528271784,-0.164
1747250776535958905,-0.16
1747250776543646026,-0.167
1747250776551333147,-0.209
1747250776559020268,-0.28800000000000003
1747250776566707389,-0.258
1747250776574394510,0.23600000000000002
1747250776582081695,1.115
1747250776589768816,1.728
1747250776597455937,1.445
1747250776605143058,0.221
1747250776612830179,-0.704
1747250776620517300,-0.462
1747250776628204421,-0.12
1747250776635891542,-0.28
1747250776643578663,-0.312
1747250776651265784,-0.182
1747250776658952905,-0.192
1747250776666640026,-0.214
1747250776674327147,-0.155
1747250776682014268,-0.128
1747250776689701389,-0.128
1747250776697388510,-0.10300000000000001
1747250776705075631,-0.078
1747250776712762752,-0.059000000000000004
1747250776720449873,-0.034
1747250776728136994,-0.007
1747250776735824115,0.019
1747250776743511236,0.051000000000000004
1747250776751198357,0.098
1747250776758885478,0.147
1747250776766572599,0.194
1747250776774259720,0.243
1747250776781946841,0.292
1747250776789633962,0.324
1747250776797321083,0.334
1747250776805008204,0.334
1747250776812695325,0.32
1747250776820382446,0.28500000000000003
1747250776828069567,0.224
1747250776835756688,0.132
1747250776843443809,0.004
1747250776851130930,-0.128
1747250776858818051,-0.228
1747250776866505172,-0.297
1747250776874192293,-0.342
1747250776881879414,-0.356
1747250776889566535,-0.361
1747250776897253656,-0.359
1747250776904940777,-0.342
1747250776912627898,-0.322
1747250776920315019,-0.31
1747250776928002140,-0.297
1747250776935689261,-0.28500000000000003
1747250776943376382,-0.275
1747250776951063503,-0.26
1747250776958750624,-0.248
1747250776966437745,-0.241
1747250776974124866,-0.23600000000000002
1747250776981811987,-0.231
1747250776989499108,-0.228
1747250776997186229,-0.224
1747250777004873350,-0.221
1747250777012560471,-0.219
1747250777020247592,-0.216
1747250777027934713,-0.211
1747250777035621834,-0.209
1747250777043308955,-0.209
1747250777050996076,-0.20600000000000002
1747250777058683197,-0.20400000000000001
1747250777066370318,-0.199
1747250777074057439,-0.196
1747250777081744560,-0.194
1747250777089431681,-0.192
1747250777097118802,-0.184
1747250777104805923,-0.179
1747250777112493044,-0.17200000000000001
1747250777120180165,-0.17400000000000002
1747250777127867286,-0.184
1747250777135554407,-0.187
1747250777143241592,-0.17200000000000001,85,687
1747250777150928713,-0.14200000000000002
1747250777158615834,-0.128
1747250777166302955,-0.132
1747250777173990076,-0.13
1747250777181677197,-0.113
1747250777189364318,-0.128
1747250777197051439,-0.169
1747250777204738560,-0.182
1747250777212425681,-0.17400000000000002
1747250777220112802,-0.169
1747250777227799923,-0.164
1747250777235487044,-0.157
1747250777243174165,-0.152
1747250777250861286,-0.145
1747250777258548407,-0.155
1747250777266235528,-0.189
1747250777273922649,-0.268
1747250777281609770,-0.28300000000000003
1747250777289296891,0.12
1747250777296984012,0.984
1747250777304671133,1.703
1747250777312358254,1.592
1747250777320045375,0.448
1747250777327732496,-0.632
1747250777335419617,-0.519
1747250777343106738,-0.105
1747250777350793859,-0.231
1747250777358480980,-0.315
1747250777366168101,-0.182
1747250777373855222,-0.16
1747250777381542343,-0.187
1747250777389229464,-0.145
1747250777396916585,-0.113
1747250777404603706,-0.10300000000000001
1747250777412290827,-0.081
1747250777419977948,-0.061
1747250777427665069,-0.046
1747250777435352190,-0.009000000000000001
1747250777443039311,0.029
1747250777450726432,0.051000000000000004
1747250777458413553,0.081
1747250777466100674,0.123
1747250777473787795,0.169
1747250777481474916,0.221
1747250777489162037,0.275
1747250777496849158,0.322
1747250777504536279,0.354
1747250777512223400,0.381
1747250777519910521,0.384
1747250777527597642,0.364
1747250777535284763,0.337
1747250777542971884,0.278
1747250777550659005,0.179
1747250777558346126,0.056
1747250777566033247,-0.07100000000000001
1747250777573720368,-0.189
1747250777581407489,-0.28
1747250777589094610,-0.322
1747250777596781731,-0.332
1747250777604468852,-0.34700000000000003
1747250777612155973,-0.359
1747250777619843094,-0.34900000000000003
1747250777627530215,-0.322
1747250777635217336,-0.297
1747250777642904457,-0.292
1747250777650591578,-0.28300000000000003
1747250777658278699,-0.265
1747250777665965820,-0.253
1747250777673652941,-0.23800000000000002
1747250777681340062,-0.233
1747250777689027183,-0.233
1747250777696714304,-0.211
1747250777704401493,-0.196
1747250777712088266,-0.20600000000000002
1747250777719775039,-0.211
1747250777727461812,-0.20400000000000001
1747250777735148585,-0.20600000000000002
1747250777742835358,-0.209
1747250777750522131,-0.201
1747250777758208904,-0.199
1747250777765895677,-0.192
1747250777773582450,-0.179
1747250777781269223,-0.17400000000000002
1747250777788955996,-0.187
1747250777796642769,-0.192
1747250777804329542,-0.187
1747250777812016315,-0.179
1747250777819703088,-0.169
1747250777827389861,-0.152
1747250777835076634,-0.15
1747250777842763407,-0.167
1747250777850450180,-0.177
1747250777858136953,-0.167
1747250777865823726,-0.137
1747250777873510499,-0.115
1747250777881197272,-0.11
1747250777888884045,-0.105
1747250777896570818,-0.1
1747250777904257591,-0.115
1747250777911944364,-0.152
1747250777919631137,-0.17400000000000002
1747250777927317910,-0.162
1747250777935004683,-0.145
1747250777942691456,-0.145
1747250777950378229,-0.147
1747250777958065002,-0.147
1747250777965751775,-0.14200000000000002
1747250777973438548,-0.147
1747250777981125321,-0.17200000000000001
1747250777988812094,-0.226
1747250777996498867,-0.28300000000000003
1747250778004185640,-0.056
1747250778011872413,0.6910000000000001
1747250778019559186,1.393
1747250778027245959,1.346
1747250778034932732,0.548
1747250778042619505,-0.381
1747250778050306278,-0.5710000000000001
1747250778057993051,-0.233
1747250778065679824,-0.17200000000000001
1747250778073366597,-0.246
1747250778081053370,-0.17400000000000002
1747250778088740143,-0.132
1747250778096426916,-0.145
1747250778104113689,-0.115
1747250778111800462,-0.08600000000000001
1747250778119487235,-0.088
1747250778127174008,-0.076
1747250778134860781,-0.034
1747250778142547554,-0.002
1747250778150234327,0.012
1747250778157921100,0.024
1747250778165607873,0.051000000000000004
1747250778173294646,0.093
1747250778180981419,0.14200000000000002
1747250778188668192,0.182
1747250778196354965,0.219
1747250778204041738,0.27
1747250778211728511,0.327
1747250778219415284,0.369
1747250778227102057,0.376
1747250778234788830,0.364
1747250778242475603,0.359
1747250778250162376,0.342
1747250778257849149,0.29
1747250778265535959,0.201,86,671
1747250778273223011,0.083,,706
1747250778280910063,-0.044
1747250778288597115,-0.164
1747250778296284167,-0.253
1747250778303971219,-0.295
1747250778311658271,-0.329
1747250778319345323,-0.352
1747250778327032375,-0.342
1747250778334719427,-0.322
1747250778342406479,-0.305
1747250778350093531,-0.292
1747250778357780583,-0.28500000000000003
1747250778365467635,-0.28300000000000003
1747250778373154687,-0.268
1747250778380841739,-0.248
1747250778388528791,-0.23600000000000002
1747250778396215843,-0.228
1747250778403902895,-0.209
1747250778411589947,-0.196
1747250778419276999,-0.199
1747250778426964051,-0.196
1747250778434651103,-0.192
1747250778442338155,-0.187
1747250778450025207,-0.187
1747250778457712259,-0.182
1747250778465399311,-0.177
1747250778473086363,-0.177
1747250778480773415,-0.179
1747250778488460467,-0.184
1747250778496147519,-0.189
1747250778503834571,-0.179
1747250778511521623,-0.169
1747250778519208675,-0.177
1747250778526895727,-0.187
1747250778534582779,-0.182
1747250778542269831,-0.164
1747250778549956883,-0.137
1747250778557643935,-0.125
1747250778565330987,-0.128
1747250778573018039,-0.128
1747250778580705091,-0.13
1747250778588392143,-0.15
1747250778596079195,-0.179
1747250778603766247,-0.189
1747250778611453299,-0.177
1747250778619140351,-0.167
1747250778626827403,-0.17400000000000002
1747250778634514455,-0.177
1747250778642201507,-0.167
1747250778649888559,-0.16
1747250778657575611,-0.177
1747250778665262663,-0.216
1747250778672949715,-0.295
1747250778680636767,-0.221
1747250778688323819,0.352
1747250778696010871,1.1520000000000001
1747250778703697923,1.408
1747250778711384975,0.868
1747250778719072027,-0.098
1747250778726759079,-0.637
1747250778734446131,-0.41300000000000003
1747250778742133183,-0.192
1747250778749820235,-0.253
1747250778757507287,-0.233
1747250778765194339,-0.167
1747250778772881391,-0.177
1747250778780568443,-0.164
1747250778788255495,-0.125
1747250778795942547,-0.11800000000000001
1747250778803629599,-0.108
1747250778811316651,-0.078
1747250778819003703,-0.061
1747250778826690769,-0.046
1747250778834377890,-0.019
1747250778842065011,0.004
1747250778849752132,0.027
1747250778857439253,0.059000000000000004
1747250778865126374,0.1
1747250778872813495,0.14
1747250778880500616,0.187
1747250778888187737,0.224
1747250778895874858,0.248
1747250778903561979,0.268
1747250778911249100,0.278
1747250778918936221,0.263
1747250778926623342,0.23600000000000002
1747250778934310463,0.201
1747250778941997584,0.14
1747250778949684705,0.044
1747250778957371826,-0.068
1747250778965058947,-0.17400000000000002
1747250778972746068,-0.258
1747250778980433189,-0.31
1747250778988120310,-0.334
1747250778995807431,-0.342
1747250779003494552,-0.34700000000000003
1747250779011181673,-0.34400000000000003
1747250779018868794,-0.327
1747250779026555915,-0.312
1747250779034243036,-0.305
1747250779041930157,-0.28800000000000003
1747250779049617278,-0.27
1747250779057304399,-0.265
1747250779064991520,-0.256
1747250779072678641,-0.23800000000000002
1747250779080365762,-0.231
1747250779088052883,-0.219
1747250779095740004,-0.20400000000000001
1747250779103427125,-0.209
1747250779111114246,-0.211
1747250779118801367,-0.201
1747250779126488488,-0.199
1747250779134175609,-0.201
1747250779141862730,-0.199
1747250779149549851,-0.201
1747250779157236972,-0.201
1747250779164924093,-0.196
1747250779172611214,-0.196
1747250779180298335,-0.196
1747250779187985456,-0.194
1747250779195672577,-0.192
1747250779203359698,-0.189
1747250779211046819,-0.182
1747250779218733940,-0.189
1747250779226421061,-0.196
1747250779234108182,-0.194
1747250779241795303,-0.182
1747250779249482424,-0.157
1747250779257169545,-0.14200000000000002
1747250779264856666,-0.145
1747250779272543787,-0.14
1747250779280230908,-0.13
1747250779287918029,-0.147
1747250779295605150,-0.184
1747250779303292271,-0.196
1747250779310979392,-0.187
1747250779318666513,-0.179
1747250779326353634,-0.179
1747250779334040755,-0.17400000000000002
1747250779341727876,-0.164
1747250779349414997,-0.167
1747250779357102118,-0.184
1747250779364789239,-0.211
1747250779372476360,-0.278
1747250779380163481,-0.253
1747250779387850666,0.216,86,716
1747250779395537369,1.026
1747250779403224072,1.541
1747250779410910775,1.262
1747250779418597478,0.184
1747250779426284181,-0.662
1747250779433970884,-0.462
1747250779441657587,-0.13
1747250779449344290,-0.258
1747250779457030993,-0.3
1747250779464717696,-0.189
1747250779472404399,-0.192
1747250779480091102,-0.201
1747250779487777805,-0.155
1747250779495464508,-0.14
1747250779503151211,-0.13
1747250779510837914,-0.096
1747250779518524617,-0.076
1747250779526211320,-0.066
1747250779533898023,-0.036000000000000004
1747250779541584726,-0.009000000000000001
1747250779549271429,0.012
1747250779556958132,0.046
1747250779564644835,0.088
1747250779572331538,0.125
1747250779580018241,0.167
1747250779587704944,0.216
1747250779595391647,0.26
1747250779603078350,0.28800000000000003
1747250779610765053,0.3
1747250779618451756,0.295
1747250779626138459,0.278
1747250779633825162,0.251
1747250779641511865,0.20400000000000001
1747250779649198568,0.115
1747250779656885271,-0.007
1747250779664571974,-0.125
1747250779672258677,-0.221
1747250779679945380,-0.292
1747250779687632083,-0.329
1747250779695318786,-0.339
1747250779703005489,-0.34400000000000003
1747250779710692192,-0.342
1747250779718378895,-0.332
1747250779726065598,-0.317
1747250779733752301,-0.302
1747250779741439004,-0.29
1747250779749125707,-0.278
1747250779756812410,-0.268
1747250779764499113,-0.253
1747250779772185816,-0.23800000000000002
1747250779779872519,-0.233
1747250779787559222,-0.233
1747250779795245925,-0.228
1747250779802932628,-0.224
1747250779810619331,-0.219
1747250779818306034,-0.214
1747250779825992737,-0.216
1747250779833679440,-0.219
1747250779841366143,-0.211
1747250779849052846,-0.20400000000000001
1747250779856739549,-0.209
1747250779864426252,-0.211
1747250779872112955,-0.201
1747250779879799658,-0.194
1747250779887486361,-0.194
1747250779895173064,-0.194
1747250779902859767,-0.189
1747250779910546470,-0.184
1747250779918233173,-0.182
1747250779925919876,-0.177
1747250779933606579,-0.177
1747250779941293282,-0.179
1747250779948980045,-0.187
1747250779956667166,-0.187
1747250779964354287,-0.169
1747250779972041408,-0.14
1747250779979728529,-0.125
1747250779987415650,-0.137
1747250779995102771,-0.135
1747250780002789892,-0.11800000000000001
1747250780010477013,-0.135
1747250780018164134,-0.177
1747250780025851255,-0.189
1747250780033538376,-0.177
1747250780041225497,-0.169
1747250780048912618,-0.162
1747250780056599739,-0.16
1747250780064286860,-0.162
1747250780071973981,-0.16
1747250780079661102,-0.164
1747250780087348223,-0.196
1747250780095035344,-0.273
1747250780102722465,-0.265
1747250780110409586,0.17200000000000001
1747250780118096707,1.041
1747250780125783828,1.71
1747250780133470949,1.506
1747250780141158070,0.32
1747250780148845191,-0.681
1747250780156532312,-0.499
1747250780164219433,-0.123
1747250780171906554,-0.258
1747250780179593675,-0.307
1747250780187280796,-0.182
1747250780194967917,-0.179
1747250780202655038,-0.199
1747250780210342159,-0.15
1747250780218029280,-0.12
1747250780225716401,-0.12
1747250780233403522,-0.1
1747250780241090643,-0.068
1747250780248777764,-0.041
1747250780256464885,-0.019
1747250780264152006,0.004
1747250780271839127,0.036000000000000004
1747250780279526248,0.066
1747250780287213369,0.1
1747250780294900490,0.152
1747250780302587611,0.20400000000000001
1747250780310274732,0.253
1747250780317961853,0.297
1747250780325648974,0.32
1747250780333336095,0.334
1747250780341023216,0.342
1747250780348710337,0.327
1747250780356397458,0.295
1747250780364084579,0.246
1747250780371771700,0.157
1747250780379458821,0.032
1747250780387145942,-0.098
1747250780394833063,-0.199
1747250780402520184,-0.273
1747250780410207305,-0.32
1747250780417894426,-0.339
1747250780425581547,-0.34700000000000003
1747250780433268668,-0.34400000000000003
1747250780440955789,-0.332
1747250780448642910,-0.317
1747250780456330031,-0.302
1747250780464017152,-0.29
1747250780471704273,-0.28
1747250780479391394,-0.263
1747250780487078515,-0.241
1747250780494765636,-0.23800000000000002
1747250780502452757,-0.241
1747250780510139942,-0.226,85,716
1747250780517827063,-0.209,,680
1747250780525514184,-0.214
1747250780533201305,-0.224
1747250780540888426,-0.219
1747250780548575547,-0.20600000000000002
1747250780556262668,-0.20400000000000001
1747250780563949789,-0.20600000000000002
1747250780571636910,-0.201
1747250780579324031,-0.199
1747250780587011152,-0.201
1747250780594698273,-0.192
1747250780602385394,-0.189
1747250780610072515,-0.192
1747250780617759636,-0.182
1747250780625446757,-0.182
1747250780633133878,-0.187
1747250780640820999,-0.17400000000000002
1747250780648508120,-0.16
1747250780656195241,-0.164
1747250780663882362,-0.164
1747250780671569483,-0.167
1747250780679256604,-0.177
1747250780686943725,-0.17200000000000001
1747250780694630846,-0.15
1747250780702317967,-0.13
1747250780710005088,-0.115
1747250780717692209,-0.113
1747250780725379330,-0.113
1747250780733066451,-0.113
1747250780740753572,-0.132
1747250780748440693,-0.162
1747250780756127814,-0.17400000000000002
1747250780763814935,-0.164
1747250780771502056,-0.147
1747250780779189177,-0.15
1747250780786876298,-0.162
1747250780794563419,-0.152
1747250780802250540,-0.14200000000000002
1747250780809937661,-0.162
1747250780817624782,-0.199
1747250780825311903,-0.263
1747250780832999024,-0.209
1747250780840686145,0.32
1747250780848373266,1.1520000000000001
1747250780856060387,1.536
1747250780863747508,1.036
1747250780871434629,-0.061
1747250780879121750,-0.664
1747250780886808871,-0.359
1747250780894495992,-0.128
1747250780902183113,-0.248
1747250780909870234,-0.226
1747250780917557355,-0.137
1747250780925244476,-0.155
1747250780932931597,-0.147
1747250780940618718,-0.096
1747250780948305839,-0.091
1747250780955992960,-0.091
1747250780963680081,-0.051000000000000004
1747250780971367202,-0.027
1747250780979054323,-0.019
1747250780986741444,0.007
1747250780994428565,0.041
1747250781002115686,0.07100000000000001
1747250781009802807,0.108
1747250781017489928,0.152
1747250781025177049,0.189
1747250781032864170,0.226
1747250781040551291,0.28
1747250781048238412,0.329
1747250781055925533,0.354
1747250781063612654,0.354
1747250781071299843,0.342,85,702
1747250781078986546,0.332
1747250781086673249,0.305
1747250781094359952,0.233
1747250781102046655,0.128
1747250781109733358,0.009000000000000001
1747250781117420061,-0.108
1747250781125106764,-0.211
1747250781132793467,-0.278
1747250781140480170,-0.312
1747250781148166873,-0.339
1747250781155853576,-0.34700000000000003
1747250781163540279,-0.327
1747250781171226982,-0.32
1747250781178913685,-0.317
1747250781186600388,-0.3
1747250781194287091,-0.28
1747250781201973794,-0.268
1747250781209660497,-0.253
1747250781217347200,-0.23800000000000002
1747250781225033903,-0.228
1747250781232720606,-0.224
1747250781240407309,-0.211
1747250781248094012,-0.20400000000000001
1747250781255780715,-0.209
1747250781263467418,-0.20600000000000002
1747250781271154121,-0.194
1747250781278840824,-0.194
1747250781286527527,-0.196
1747250781294214230,-0.194
1747250781301900933,-0.194
1747250781309587636,-0.194
1747250781317274339,-0.189
1747250781324961042,-0.189
1747250781332647745,-0.196
1747250781340334448,-0.196
1747250781348021151,-0.179
1747250781355707854,-0.17200000000000001
1747250781363394557,-0.184
1747250781371081260,-0.187
1747250781378767963,-0.187
1747250781386454666,-0.192
1747250781394141369,-0.184
1747250781401828072,-0.155
1747250781409514775,-0.132
1747250781417201478,-0.14
1747250781424888181,-0.145
1747250781432574884,-0.135
1747250781440261587,-0.147
1747250781447948290,-0.177
1747250781455634993,-0.192
1747250781463321696,-0.192
1747250781471008399,-0.182
1747250781478695102,-0.177
1747250781486381805,-0.177
1747250781494068508,-0.17400000000000002
1747250781501755211,-0.162
1747250781509441914,-0.17400000000000002
1747250781517128617,-0.20600000000000002
1747250781524815320,-0.265
1747250781532502023,-0.312
1747250781540188726,-0.019
1747250781547875429,0.782
1747250781555562132,1.479
1747250781563248835,1.4000000000000001
1747250781570935538,0.467
1747250781578622241,-0.544
1747250781586308944,-0.61
1747250781593995647,-0.214
1747250781601682350,-0.219
1747250781609369053,-0.29
1747250781617055756,-0.199
1747250781624742459,-0.179
1747250781632429222,-0.196
1747250781640116343,-0.16
1747250781647803464,-0.13
1747250781655490585,-0.125
1747250781663177706,-0.105
1747250781670864827,-0.078
1747250781678551948,-0.061
1747250781686239069,-0.044
1747250781693926190,-0.019
1747250781701613311,0.004
1747250781709300432,0.036000000000000004
1747250781716987553,0.076
1747250781724674674,0.113
1747250781732361795,0.152
1747250781740048916,0.196
1747250781747736037,0.23600000000000002
1747250781755423158,0.265
1747250781763110279,0.275
1747250781770797400,0.265
1747250781778484521,0.246
1747250781786171642,0.224
1747250781793858763,0.184
1747250781801545884,0.108
1747250781809233005,0.002
1747250781816920126,-0.108
1747250781824607247,-0.209
1747250781832294368,-0.28500000000000003
1747250781839981489,-0.329
1747250781847668610,-0.34900000000000003
1747250781855355731,-0.34900000000000003
1747250781863042852,-0.34700000000000003
1747250781870729973,-0.34400000000000003
1747250781878417094,-0.329
1747250781886104215,-0.312
1747250781893791336,-0.305
1747250781901478457,-0.292
1747250781909165578,-0.275
1747250781916852699,-0.26
1747250781924539820,-0.253
1747250781932226941,-0.243
1747250781939914062,-0.233
1747250781947601183,-0.226
1747250781955288304,-0.221
1747250781962975425,-0.219
1747250781970662546,-0.216
1747250781978349667,-0.214
1747250781986036788,-0.20600000000000002
1747250781993723909,-0.20600000000000002
1747250782001411030,-0.211
1747250782009098151,-0.211
1747250782016785272,-0.20600000000000002
1747250782024472393,-0.20600000000000002
1747250782032159514,-0.20600000000000002
1747250782039846635,-0.201
1747250782047533756,-0.199
1747250782055220877,-0.199
1747250782062907998,-0.196
1747250782070595119,-0.189
1747250782078282240,-0.187
1747250782085969361,-0.187
1747250782093656482,-0.184
1747250782101343603,-0.189
1747250782109030724,-0.196
1747250782116717845,-0.187
1747250782124404966,-0.157
1747250782132092087,-0.137
1747250782139779208,-0.145
1747250782147466329,-0.14
1747250782155153450,-0.128
1747250782162840571,-0.145
1747250782170527692,-0.177
1747250782178214813,-0.192
1747250782185901934,-0.184
1747250782193589119,-0.179,86,724
1747250782201276031,-0.17400000000000002
1747250782208962943,-0.169
1747250782216649855,-0.167
1747250782224336767,-0.164
1747250782232023679,-0.177
1747250782239710591,-0.214
1747250782247397503,-0.29
1747250782255084415,-0.268
1747250782262771327,0.224
1747250782270458239,1.125
1747250782278145151,1.7650000000000001
1747250782285832063,1.464
1747250782293518975,0.20400000000000001
1747250782301205887,-0.721
1747250782308892799,-0.467
1747250782316579711,-0.13
1747250782324266623,-0.28500000000000003
1747250782331953535,-0.317
1747250782339640447,-0.194
1747250782347327359,-0.20400000000000001
1747250782355014271,-0.219
1747250782362701183,-0.162
1747250782370388095,-0.14
1747250782378075007,-0.137
1747250782385761919,-0.108
1747250782393448831,-0.081
1747250782401135743,-0.064
1747250782408822655,-0.039
1747250782416509567,-0.007
1747250782424196479,0.022
1747250782431883391,0.051000000000000004
1747250782439570303,0.093
1747250782447257215,0.14
1747250782454944127,0.182
1747250782462631039,0.226
1747250782470317951,0.27
1747250782478004863,0.305
1747250782485691775,0.315
1747250782493378687,0.307
1747250782501065599,0.292
1747250782508752511,0.27
1747250782516439423,0.216
1747250782524126335,0.125
1747250782531813247,0.002
1747250782539500159,-0.123
1747250782547187071,-0.224
1747250782554873983,-0.292
1747250782562560895,-0.334
1747250782570247807,-0.356
1747250782577934719,-0.361
1747250782585621631,-0.354
1747250782593308543,-0.342
1747250782600995455,-0.327
1747250782608682367,-0.312
1747250782616369279,-0.295
1747250782624056191,-0.28
1747250782631743103,-0.27
1747250782639430015,-0.26
1747250782647116927,-0.251
1747250782654803839,-0.246
1747250782662490751,-0.241
1747250782670177663,-0.23600000000000002
1747250782677864575,-0.231
1747250782685551487,-0.226
1747250782693238399,-0.221
1747250782700925311,-0.216
1747250782708612223,-0.214
1747250782716299135,-0.216
1747250782723986047,-0.221
1747250782731672959,-0.219
1747250782739359871,-0.209
1747250782747046783,-0.201
1747250782754733759,-0.20400000000000001
1747250782762420671,-0.20400000000000001
1747250782770107583,-0.196
1747250782777794495,-0.196
1747250782785481407,-0.196
1747250782793168319,-0.189
1747250782800855231,-0.182
1747250782808542143,-0.179
1747250782816229055,-0.187
1747250782823915967,-0.196
1747250782831602879,-0.199
1747250782839289791,-0.179
1747250782846976703,-0.147
1747250782854663615,-0.135
1747250782862350527,-0.14
1747250782870037439,-0.128
1747250782877724351,-0.12
1747250782885411263,-0.15
1747250782893098175,-0.184
1747250782900785087,-0.187
1747250782908471999,-0.182
1747250782916158911,-0.177
1747250782923845823,-0.164
1747250782931532735,-0.157
1747250782939219647,-0.162
1747250782946906559,-0.16
1747250782954593471,-0.169
1747250782962280383,-0.224
1747250782969967295,-0.317
1747250782977654207,-0.231
1747250782985341119,0.393
1747250782993028031,1.344
1747250783000714943,1.861
1747250783008401855,1.297
1747250783016088767,-0.081
1747250783023775679,-0.753
1747250783031462591,-0.339
1747250783039149503,-0.128
1747250783046836415,-0.307
1747250783054523327,-0.268
1747250783062210239,-0.167
1747250783069897151,-0.196
1747250783077584063,-0.192
1747250783085270975,-0.135
1747250783092957887,-0.11800000000000001
1747250783100644799,-0.11
1747250783108331711,-0.083
1747250783116018623,-0.061
1747250783123705535,-0.036000000000000004
1747250783131392447,-0.002
1747250783139079359,0.019
1747250783146766271,0.044
1747250783154453183,0.08600000000000001
1747250783162140095,0.135
1747250783169827007,0.177
1747250783177513919,0.228
1747250783185200831,0.28500000000000003
1747250783192887743,0.317
1747250783200574655,0.339
1747250783208261567,0.361
1747250783215948479,0.361
1747250783223635391,0.329
1747250783231322303,0.295
1747250783239009215,0.23800000000000002
1747250783246696127,0.13
1747250783254383039,0.0
1747250783262069951,-0.128
1747250783269756863,-0.231
1747250783277443775,-0.28800000000000003
1747250783285130687,-0.32
1747250783292817599,-0.34400000000000003
1747250783300504511,-0.356
1747250783308191423,-0.34400000000000003
1747250783315878395,-0.329,85,728
1747250783323565447,-0.322,,703
1747250783331252499,-0.312
1747250783338939551,-0.28500000000000003
1747250783346626603,-0.263
1747250783354313655,-0.258
1747250783362000707,-0.253
1747250783369687759,-0.23800000000000002
1747250783377374811,-0.226
1747250783385061863,-0.224
1747250783392748915,-0.221
1747250783400435967,-0.214
1747250783408123019,-0.209
1747250783415810071,-0.20600000000000002
1747250783423497123,-0.20400000000000001
1747250783431184175,-0.20600000000000002
1747250783438871227,-0.20600000000000002
1747250783446558279,-0.196
1747250783454245331,-0.192
1747250783461932383,-0.189
1747250783469619435,-0.189
1747250783477306487,-0.189
1747250783484993539,-0.189
1747250783492680591,-0.187
1747250783500367643,-0.182
1747250783508054695,-0.177
1747250783515741747,-0.179
1747250783523428799,-0.187
1747250783531115851,-0.177
1747250783538802903,-0.152
1747250783546489955,-0.135
1747250783554177007,-0.128
1747250783561864059,-0.123
1747250783569551111,-0.113
1747250783577238163,-0.113
1747250783584925215,-0.145
1747250783592612267,-0.17200000000000001
1747250783600299319,-0.167
1747250783607986371,-0.157
1747250783615673423,-0.162
1747250783623360475,-0.164
1747250783631047527,-0.15
1747250783638734579,-0.145
1747250783646421631,-0.14
1747250783654108683,-0.147
1747250783661795735,-0.199
1747250783669482787,-0.292
1747250783677169839,-0.241
1747250783684856891,0.327
1747250783692543943,1.211
1747250783700230995,1.602
1747250783707918047,1.046
1747250783715605099,-0.088
1747250783723292151,-0.662
1747250783730979203,-0.352
1747250783738666255,-0.15
1747250783746353307,-0.26
1747250783754040359,-0.214
1747250783761727411,-0.132
1747250783769414463,-0.157
1747250783777101515,-0.147
1747250783784788567,-0.105
1747250783792475619,-0.093
1747250783800162671,-0.078
1747250783807849723,-0.051000000000000004
1747250783815536775,-0.032
1747250783823223827,-0.012
1747250783830910879,0.014
1747250783838597931,0.041
1747250783846284983,0.073
1747250783853972035,0.115
1747250783861659087,0.157
1747250783869346139,0.201
1747250783877033209,0.248
1747250783884719982,0.295
1747250783892406755,0.332
1747250783900093528,0.354
1747250783907780301,0.359
1747250783915467074,0.34400000000000003
1747250783923153847,0.317
1747250783930840620,0.28
1747250783938527393,0.216
1747250783946214166,0.1
1747250783953900939,-0.039
1747250783961587712,-0.157
1747250783969274485,-0.248
1747250783976961258,-0.315
1747250783984648031,-0.34700000000000003
1747250783992334804,-0.354
1747250784000021577,-0.361
1747250784007708350,-0.364
1747250784015395123,-0.354
1747250784023081896,-0.334
1747250784030768669,-0.317
1747250784038455442,-0.305
1747250784046142215,-0.295
1747250784053828988,-0.278
1747250784061515761,-0.26
1747250784069202534,-0.253
1747250784076889307,-0.243
1747250784084576080,-0.231
1747250784092262853,-0.226
1747250784099949626,-0.224
1747250784107636399,-0.216
1747250784115323172,-0.209
1747250784123009945,-0.209
1747250784130696718,-0.211
1747250784138383491,-0.214
1747250784146070264,-0.211
1747250784153757037,-0.211
1747250784161443810,-0.209
1747250784169130583,-0.20400000000000001
1747250784176817356,-0.20600000000000002
1747250784184504129,-0.209
1747250784192190902,-0.199
1747250784199877675,-0.196
1747250784207564448,-0.201
1747250784215251221,-0.201
1747250784222937994,-0.20400000000000001
1747250784230624767,-0.199
1747250784238311540,-0.17200000000000001
1747250784245998313,-0.147
1747250784253685086,-0.15
1747250784261371859,-0.152
1747250784269058632,-0.135
1747250784276745405,-0.145
1747250784284432178,-0.187
1747250784292118951,-0.20600000000000002
1747250784299805724,-0.189
1747250784307492497,-0.179
1747250784315179270,-0.182
1747250784322866043,-0.177
1747250784330552816,-0.169
1747250784338239589,-0.167
1747250784345926362,-0.17400000000000002
1747250784353613135,-0.20400000000000001
1747250784361299908,-0.278
1747250784368986681,-0.307
1747250784376673454,0.049
1747250784384360227,0.886
1747250784392047000,1.612
1747250784399733773,1.526
1747250784407420546,0.443
1747250784415107319,-0.635
1747250784422794092,-0.58
1747250784430480865,-0.155
1747250784438167671,-0.233,85,721
1747250784445854792,-0.312
1747250784453541913,-0.201
1747250784461229034,-0.189
1747250784468916155,-0.209
1747250784476603276,-0.16
1747250784484290397,-0.132
1747250784491977518,-0.13
1747250784499664639,-0.10300000000000001
1747250784507351760,-0.076
1747250784515038881,-0.059000000000000004
1747250784522726002,-0.039
1747250784530413123,-0.009000000000000001
1747250784538100244,0.019
1747250784545787365,0.049
1747250784553474486,0.08600000000000001
1747250784561161607,0.13
1747250784568848728,0.177
1747250784576535849,0.221
1747250784584222970,0.263
1747250784591910091,0.297
1747250784599597212,0.312
1747250784607284333,0.307
1747250784614971454,0.29
1747250784622658575,0.263
1747250784630345696,0.219
1747250784638032817,0.132
1747250784645719938,0.009000000000000001
1747250784653407059,-0.115
1747250784661094180,-0.221
1747250784668781301,-0.29
1747250784676468422,-0.332
1747250784684155543,-0.354
1747250784691842664,-0.361
1747250784699529785,-0.356
1747250784707216906,-0.34400000000000003
1747250784714904027,-0.327
1747250784722591148,-0.312
1747250784730278269,-0.302
1747250784737965390,-0.28800000000000003
1747250784745652511,-0.27
1747250784753339632,-0.26
1747250784761026753,-0.256
1747250784768713874,-0.248
1747250784776400995,-0.23800000000000002
1747250784784088116,-0.231
1747250784791775237,-0.228
1747250784799462358,-0.226
1747250784807149479,-0.224
1747250784814836600,-0.219
1747250784822523721,-0.219
1747250784830210842,-0.219
1747250784837897963,-0.214
1747250784845585084,-0.211
1747250784853272205,-0.216
1747250784860959326,-0.211
1747250784868646447,-0.20600000000000002
1747250784876333568,-0.20600000000000002
1747250784884020689,-0.20400000000000001
1747250784891707810,-0.201
1747250784899394931,-0.199
1747250784907082052,-0.196
1747250784914769173,-0.196
1747250784922456294,-0.189
1747250784930143415,-0.189
1747250784937830536,-0.199
1747250784945517657,-0.189
1747250784953204778,-0.164
1747250784960891899,-0.15
1747250784968579020,-0.145
1747250784976266141,-0.137
1747250784983953262,-0.128
1747250784991640383,-0.132
1747250784999327572,-0.162,85,721
1747250785007014275,-0.192,,699
1747250785014700978,-0.189
1747250785022387681,-0.17200000000000001
1747250785030074384,-0.167
1747250785037761087,-0.169
1747250785045447790,-0.167
1747250785053134493,-0.16
1747250785060821196,-0.164
1747250785068507899,-0.194
1747250785076194602,-0.265
1747250785083881305,-0.327
1747250785091568008,-0.07100000000000001
1747250785099254711,0.74
1747250785106941414,1.649
1747250785114628117,1.841
1747250785122314820,0.834
1747250785130001523,-0.507
1747250785137688226,-0.672
1747250785145374929,-0.177
1747250785153061632,-0.201
1747250785160748335,-0.342
1747250785168435038,-0.224
1747250785176121741,-0.187
1747250785183808444,-0.228
1747250785191495147,-0.179
1747250785199181850,-0.132
1747250785206868553,-0.135
1747250785214555256,-0.12
1747250785222241959,-0.081
1747250785229928662,-0.059000000000000004
1747250785237615365,-0.039
1747250785245302068,-0.012
1747250785252988771,0.014
1747250785260675474,0.054
1747250785268362177,0.096
1747250785276048880,0.135
1747250785283735583,0.184
1747250785291422286,0.23800000000000002
1747250785299108989,0.28300000000000003
1747250785306795692,0.317
1747250785314482395,0.339
1747250785322169098,0.342
1747250785329855801,0.332
1747250785337542504,0.31
1747250785345229207,0.263
1747250785352915910,0.179
1747250785360602613,0.064
1747250785368289316,-0.066
1747250785375976019,-0.189
1747250785383662722,-0.27
1747250785391349425,-0.32
1747250785399036128,-0.354
1747250785406722831,-0.366
1747250785414409534,-0.356
1747250785422096237,-0.34900000000000003
1747250785429782940,-0.339
1747250785437469643,-0.32
1747250785445156346,-0.305
1747250785452843049,-0.292
1747250785460529752,-0.275
1747250785468216455,-0.258
1747250785475903158,-0.246
1747250785483589861,-0.23600000000000002
1747250785491276564,-0.231
1747250785498963267,-0.221
1747250785506649970,-0.214
1747250785514336673,-0.221
1747250785522023376,-0.224
1747250785529710079,-0.209
1747250785537396782,-0.196
1747250785545083485,-0.201
1747250785552770188,-0.20400000000000001
1747250785560456951,-0.199
1747250785568144072,-0.199
1747250785575831193,-0.194
1747250785583518314,-0.189
1747250785591205435,-0.194
1747250785598892556,-0.192
1747250785606579677,-0.179
1747250785614266798,-0.17400000000000002
1747250785621953919,-0.177
1747250785629641040,-0.17400000000000002
1747250785637328161,-0.169
1747250785645015282,-0.167
1747250785652702403,-0.17200000000000001
1747250785660389524,-0.179
1747250785668076645,-0.17400000000000002
1747250785675763766,-0.155
1747250785683450887,-0.132
1747250785691138008,-0.11800000000000001
1747250785698825129,-0.113
1747250785706512250,-0.105
1747250785714199371,-0.12
1747250785721886492,-0.152
1747250785729573613,-0.169
1747250785737260734,-0.164
1747250785744947855,-0.16
1747250785752634976,-0.157
1747250785760322097,-0.15
1747250785768009218,-0.145
1747250785775696339,-0.14200000000000002
1747250785783383460,-0.147
1747250785791070581,-0.17200000000000001
1747250785798757702,-0.228
1747250785806444823,-0.307
1747250785814131944,-0.12
1747250785821819065,0.644
1747250785829506186,1.555
1747250785837193307,1.7770000000000001
1747250785844880428,0.876
1747250785852567549,-0.40800000000000003
1747250785860254670,-0.667
1747250785867941791,-0.201
1747250785875628912,-0.169
1747250785883316033,-0.302
1747250785891003154,-0.196
1747250785898690275,-0.152
1747250785906377396,-0.199
1747250785914064517,-0.155
1747250785921751638,-0.108
1747250785929438759,-0.115
1747250785937125880,-0.088
1747250785944813001,-0.046
1747250785952500122,-0.032
1747250785960187243,-0.014
1747250785967874364,0.014
1747250785975561485,0.044
1747250785983248606,0.073
1747250785990935727,0.113
1747250785998622848,0.167
1747250786006309969,0.221
1747250786013997090,0.27
1747250786021684211,0.324
1747250786029371332,0.369
1747250786037058453,0.386
1747250786044745574,0.386
1747250786052432695,0.379
1747250786060119816,0.356
1747250786067806937,0.32
1747250786075494058,0.241
1747250786083181179,0.11
1747250786090868300,-0.034
1747250786098555421,-0.15
1747250786106242542,-0.243
1747250786113929663,-0.312
1747250786121616848,-0.34400000000000003,85,695
1747250786129303830,-0.354
1747250786136990812,-0.359
1747250786144677794,-0.354
1747250786152364776,-0.334
1747250786160051758,-0.322
1747250786167738740,-0.307
1747250786175425722,-0.28500000000000003
1747250786183112704,-0.27
1747250786190799686,-0.27
1747250786198486668,-0.258
1747250786206173650,-0.23800000000000002
1747250786213860632,-0.228
1747250786221547614,-0.224
1747250786229234596,-0.219
1747250786236921578,-0.211
1747250786244608560,-0.20600000000000002
1747250786252295542,-0.20400000000000001
1747250786259982524,-0.199
1747250786267669506,-0.194
1747250786275356488,-0.196
1747250786283043470,-0.199
1747250786290730452,-0.194
1747250786298417434,-0.196
1747250786306104416,-0.20400000000000001
1747250786313791398,-0.196
1747250786321478380,-0.187
1747250786329165362,-0.187
1747250786336852344,-0.184
1747250786344539326,-0.177
1747250786352226308,-0.187
1747250786359913290,-0.199
1747250786367600272,-0.184
1747250786375287254,-0.15
1747250786382974236,-0.13
1747250786390661218,-0.132
1747250786398348200,-0.137
1747250786406035182,-0.132
1747250786413722164,-0.152
1747250786421409146,-0.189
1747250786429096128,-0.199
1747250786436783110,-0.184
1747250786444470092,-0.179
1747250786452157074,-0.179
1747250786459844056,-0.17200000000000001
1747250786467531038,-0.164
1747250786475218020,-0.167
1747250786482905002,-0.182
1747250786490591984,-0.214
1747250786498278966,-0.28800000000000003
1747250786505965948,-0.3
1747250786513652930,0.128
1747250786521339912,1.026
1747250786529026894,1.673
1747250786536713876,1.3900000000000001
1747250786544400858,0.221
1747250786552087840,-0.6910000000000001
1747250786559774822,-0.509
1747250786567461804,-0.167
1747250786575148786,-0.273
1747250786582835768,-0.28800000000000003
1747250786590522750,-0.182
1747250786598209732,-0.199
1747250786605896714,-0.209
1747250786613583696,-0.155
1747250786621270678,-0.135
1747250786628957660,-0.128
1747250786636644642,-0.10300000000000001
1747250786644331624,-0.078
1747250786652018606,-0.056
1747250786659705588,-0.032
1747250786667392570,-0.007
1747250786675079552,0.022
1747250786682766575,0.061
1747250786690453418,0.10300000000000001
1747250786698140261,0.145
1747250786705827104,0.189
1747250786713513947,0.23600000000000002
1747250786721200790,0.28300000000000003
1747250786728887633,0.315
1747250786736574476,0.317
1747250786744261319,0.307
1747250786751948162,0.297
1747250786759635005,0.268
1747250786767321848,0.20600000000000002
1747250786775008691,0.113
1747250786782695534,-0.009000000000000001
1747250786790382377,-0.137
1747250786798069220,-0.23800000000000002
1747250786805756063,-0.3
1747250786813442906,-0.342
1747250786821129749,-0.364
1747250786828816592,-0.356
1747250786836503435,-0.34400000000000003
1747250786844190278,-0.34700000000000003
1747250786851877121,-0.339
1747250786859563964,-0.317
1747250786867250807,-0.3
1747250786874937650,-0.29
1747250786882624493,-0.278
1747250786890311336,-0.26
1747250786897998179,-0.248
1747250786905685022,-0.241
1747250786913371865,-0.233
1747250786921058708,-0.226
1747250786928745551,-0.219
1747250786936432394,-0.211
1747250786944119237,-0.209
1747250786951806080,-0.20600000000000002
1747250786959492923,-0.209
1747250786967179766,-0.209
1747250786974866609,-0.20400000000000001
1747250786982553452,-0.20600000000000002
1747250786990240295,-0.211
1747250786997927138,-0.20600000000000002
1747250787005613981,-0.196
1747250787013300824,-0.194
1747250787020987667,-0.199
1747250787028674510,-0.196
1747250787036361353,-0.189
1747250787044048196,-0.182
1747250787051735039,-0.182
1747250787059421882,-0.189
1747250787067108725,-0.184
1747250787074795568,-0.177
1747250787082482411,-0.184
1747250787090169254,-0.189
1747250787097856097,-0.179
1747250787105542940,-0.157
1747250787113229783,-0.135
1747250787120916626,-0.13
1747250787128603469,-0.128
1747250787136290312,-0.12
1747250787143977155,-0.135
1747250787151663998,-0.17200000000000001
1747250787159350841,-0.189
1747250787167037684,-0.17400000000000002
1747250787174724527,-0.162
1747250787182411370,-0.169
1747250787190098213,-0.169
1747250787197785056,-0.157
1747250787205471899,-0.155
1747250787213158742,-0.164
1747250787220845585,-0.194
1747250787228532428,-0.27
1747250787236219271,-0.305
1747250787243906124,0.051000000000000004,85,717
1747250787251593245,0.93
1747250787259280366,1.75
1747250787266967487,1.735
1747250787274654608,0.598
1747250787282341729,-0.6
1747250787290028850,-0.588
1747250787297715971,-0.15
1747250787305403092,-0.23800000000000002
1747250787313090213,-0.337
1747250787320777334,-0.214
1747250787328464455,-0.194
1747250787336151576,-0.226
1747250787343838697,-0.177
1747250787351525818,-0.135
1747250787359212939,-0.135
1747250787366900060,-0.115
1747250787374587181,-0.083
1747250787382274302,-0.064
1747250787389961423,-0.044
1747250787397648544,-0.014
1747250787405335665,0.019
1747250787413022786,0.054
1747250787420709907,0.091
1747250787428397028,0.13
1747250787436084149,0.177
1747250787443771270,0.231
1747250787451458391,0.28
1747250787459145512,0.312
1747250787466832633,0.329
1747250787474519754,0.337
1747250787482206875,0.324
1747250787489893996,0.295
1747250787497581117,0.251
1747250787505268238,0.177
1747250787512955359,0.056
1747250787520642480,-0.083
1747250787528329601,-0.192
1747250787536016722,-0.27
1747250787543703843,-0.327
1747250787551390964,-0.359
1747250787559078085,-0.366
1747250787566765206,-0.361
1747250787574452327,-0.34400000000000003
1747250787582139448,-0.332
1747250787589826569,-0.324
1747250787597513690,-0.31
1747250787605200811,-0.28800000000000003
1747250787612887932,-0.278
1747250787620575053,-0.263
1747250787628262174,-0.253
1747250787635949295,-0.253
1747250787643636416,-0.246
1747250787651323537,-0.233
1747250787659010658,-0.228
1747250787666697779,-0.231
1747250787674384900,-0.224
1747250787682072021,-0.219
1747250787689759142,-0.216
1747250787697446263,-0.216
1747250787705133384,-0.214
1747250787712820505,-0.209
1747250787720507626,-0.20600000000000002
1747250787728194747,-0.209
1747250787735881868,-0.20600000000000002
1747250787743568989,-0.20400000000000001
1747250787751256110,-0.20400000000000001
1747250787758943231,-0.201
1747250787766630352,-0.192
1747250787774317473,-0.184
1747250787782004594,-0.182
1747250787789691715,-0.182
1747250787797378836,-0.17200000000000001
1747250787805066025,-0.169
1747250787812752798,-0.177
1747250787820439571,-0.187
1747250787828126344,-0.187
1747250787835813117,-0.17400000000000002
1747250787843499890,-0.15
1747250787851186663,-0.13
1747250787858873436,-0.125
1747250787866560209,-0.125
1747250787874246982,-0.11800000000000001
1747250787881933755,-0.125
1747250787889620528,-0.16
1747250787897307301,-0.189
1747250787904994074,-0.182
1747250787912680847,-0.157
1747250787920367620,-0.152
1747250787928054393,-0.157
1747250787935741166,-0.155
1747250787943427939,-0.147
1747250787951114712,-0.157
1747250787958801485,-0.187
1747250787966488258,-0.263
1747250787974175031,-0.312
1747250787981861804,0.017
1747250787989548577,0.891
1747250787997235350,1.713
1747250788004922123,1.696
1747250788012608896,0.593
1747250788020295669,-0.5710000000000001
1747250788027982442,-0.58
1747250788035669215,-0.155
1747250788043355988,-0.219
1747250788051042761,-0.305
1747250788058729534,-0.194
1747250788066416307,-0.17400000000000002
1747250788074103080,-0.196
1747250788081789853,-0.147
1747250788089476626,-0.113
1747250788097163399,-0.113
1747250788104850172,-0.091
1747250788112536945,-0.066
1747250788120223718,-0.041
1747250788127910491,-0.007
1747250788135597264,0.019
1747250788143284037,0.044
1747250788150970810,0.083
1747250788158657583,0.128
1747250788166344356,0.169
1747250788174031129,0.219
1747250788181717902,0.275
1747250788189404675,0.329
1747250788197091448,0.369
1747250788204778221,0.396
1747250788212464994,0.403
1747250788220151767,0.391
1747250788227838540,0.366
1747250788235525313,0.312
1747250788243212086,0.219
1747250788250898859,0.093
1747250788258585632,-0.046
1747250788266272405,-0.169
1747250788273959178,-0.265
1747250788281645951,-0.324
1747250788289332724,-0.34700000000000003
1747250788297019497,-0.354
1747250788304706270,-0.369
1747250788312393043,-0.366
1747250788320079816,-0.337
1747250788327766589,-0.324
1747250788335453362,-0.317
1747250788343140135,-0.292
1747250788350826908,-0.275
1747250788358513681,-0.263
1747250788366200491,-0.251,85,723
1747250788373887543,-0.253,,696
1747250788381574595,-0.253
1747250788389261647,-0.226
1747250788396948699,-0.211
1747250788404635751,-0.216
1747250788412322803,-0.211
1747250788420009855,-0.20400000000000001
1747250788427696907,-0.20400000000000001
1747250788435383959,-0.211
1747250788443071011,-0.216
1747250788450758063,-0.20600000000000002
1747250788458445115,-0.199
1747250788466132167,-0.199
1747250788473819219,-0.201
1747250788481506271,-0.199
1747250788489193323,-0.192
1747250788496880375,-0.187
1747250788504567427,-0.192
1747250788512254479,-0.184
1747250788519941531,-0.179
1747250788527628583,-0.187
1747250788535315635,-0.187
1747250788543002687,-0.179
1747250788550689739,-0.169
1747250788558376791,-0.145
1747250788566063843,-0.123
1747250788573750895,-0.128
1747250788581437947,-0.128
1747250788589124999,-0.115
1747250788596812051,-0.14
1747250788604499103,-0.179
1747250788612186155,-0.182
1747250788619873207,-0.167
1747250788627560259,-0.162
1747250788635247311,-0.16
1747250788642934363,-0.162
1747250788650621415,-0.16
1747250788658308467,-0.15
1747250788665995519,-0.155
1747250788673682571,-0.196
1747250788681369623,-0.275
1747250788689056675,-0.27
1747250788696743727,0.189
1747250788704430779,1.061
1747250788712117831,1.565
1747250788719804883,1.171
1747250788727491935,0.11
1747250788735178987,-0.625
1747250788742866039,-0.445
1747250788750553091,-0.16
1747250788758240143,-0.241
1747250788765927195,-0.241
1747250788773614247,-0.15
1747250788781301299,-0.16
1747250788788988351,-0.162
1747250788796675403,-0.115
1747250788804362455,-0.1
1747250788812049507,-0.096
1747250788819736559,-0.066
1747250788827423611,-0.044
1747250788835110663,-0.024
1747250788842797715,0.004
1747250788850484767,0.034
1747250788858171819,0.064
1747250788865858871,0.098
1747250788873545923,0.135
1747250788881232975,0.187
1747250788888920027,0.241
1747250788896607079,0.28300000000000003
1747250788904294131,0.322
1747250788911981183,0.359
1747250788919668235,0.371
1747250788927355301,0.364
1747250788935042213,0.34400000000000003
1747250788942729125,0.31
1747250788950416037,0.248
1747250788958102949,0.14200000000000002
1747250788965789861,0.004
1747250788973476773,-0.125
1747250788981163685,-0.228
1747250788988850597,-0.31
1747250788996537509,-0.354
1747250789004224421,-0.369
1747250789011911333,-0.376
1747250789019598245,-0.376
1747250789027285157,-0.366
1747250789034972069,-0.34900000000000003
1747250789042658981,-0.334
1747250789050345893,-0.322
1747250789058032805,-0.305
1747250789065719717,-0.292
1747250789073406629,-0.28
1747250789081093541,-0.268
1747250789088780453,-0.256
1747250789096467365,-0.246
1747250789104154277,-0.23800000000000002
1747250789111841189,-0.228
1747250789119528101,-0.224
1747250789127215013,-0.219
1747250789134901925,-0.219
1747250789142588837,-0.216
1747250789150275749,-0.214
1747250789157962661,-0.219
1747250789165649573,-0.216
1747250789173336485,-0.20600000000000002
1747250789181023397,-0.209
1747250789188710309,-0.214
1747250789196397221,-0.20600000000000002
1747250789204084133,-0.20400000000000001
1747250789211771045,-0.20600000000000002
1747250789219457957,-0.20400000000000001
1747250789227144869,-0.199
1747250789234831781,-0.194
1747250789242518693,-0.187
1747250789250205605,-0.184
1747250789257892517,-0.199
1747250789265579429,-0.20400000000000001
1747250789273266341,-0.189
1747250789280953253,-0.162
1747250789288640165,-0.14
1747250789296327077,-0.14200000000000002
1747250789304013989,-0.14
1747250789311700901,-0.132
1747250789319387813,-0.15
1747250789327074725,-0.184
1747250789334761637,-0.194
1747250789342448549,-0.187
1747250789350135461,-0.179
1747250789357822373,-0.17200000000000001
1747250789365509285,-0.169
1747250789373196197,-0.17200000000000001
1747250789380883109,-0.169
1747250789388570021,-0.177
1747250789396256933,-0.219
1747250789403943845,-0.3
1747250789411630757,-0.275
1747250789419317669,0.214
1747250789427004581,1.102
1747250789434691493,1.715
1747250789442378405,1.43
1747250789450065317,0.224
1747250789457752229,-0.7010000000000001
1747250789465439141,-0.484
1747250789473126053,-0.147
1747250789480812965,-0.28
1747250789488499941,-0.307,85,732
1747250789496186853,-0.192
1747250789503873765,-0.20400000000000001
1747250789511560677,-0.216
1747250789519247589,-0.16
1747250789526934501,-0.135
1747250789534621413,-0.135
1747250789542308325,-0.105
1747250789549995237,-0.081
1747250789557682149,-0.07100000000000001
1747250789565369061,-0.049
1747250789573055973,-0.014
1747250789580742885,0.014
1747250789588429797,0.044
1747250789596116709,0.088
1747250789603803621,0.135
1747250789611490533,0.177
1747250789619177445,0.226
1747250789626864357,0.278
1747250789634551269,0.31
1747250789642238181,0.324
1747250789649925093,0.324
1747250789657612005,0.315
1747250789665298917,0.28500000000000003
1747250789672985829,0.23600000000000002
1747250789680672741,0.147
1747250789688359653,0.024
1747250789696046565,-0.105
1747250789703733477,-0.214
1747250789711420389,-0.29
1747250789719107301,-0.337
1747250789726794213,-0.359
1747250789734481125,-0.364
1747250789742168037,-0.356
1747250789749854949,-0.34400000000000003
1747250789757541861,-0.332
1747250789765228773,-0.32
1747250789772915685,-0.305
1747250789780602597,-0.28800000000000003
1747250789788289509,-0.275
1747250789795976421,-0.263
1747250789803663333,-0.253
1747250789811350245,-0.248
1747250789819037157,-0.243
1747250789826724069,-0.233
1747250789834410981,-0.228
1747250789842097893,-0.226
1747250789849784805,-0.226
1747250789857471717,-0.224
1747250789865158629,-0.216
1747250789872845541,-0.221
1747250789880532453,-0.221
1747250789888219365,-0.216
1747250789895906277,-0.214
1747250789903593189,-0.211
1747250789911280101,-0.201
1747250789918967013,-0.199
1747250789926653925,-0.201
1747250789934340837,-0.199
1747250789942027749,-0.196
1747250789949714661,-0.194
1747250789957401573,-0.192
1747250789965088485,-0.184
1747250789972775397,-0.179
1747250789980462309,-0.182
1747250789988149221,-0.189
1747250789995836133,-0.192
1747250790003523045,-0.179
1747250790011209957,-0.15
1747250790018896869,-0.132
1747250790026583781,-0.135
1747250790034270693,-0.128
1747250790041957605,-0.12
1747250790049644577,-0.14,84,738
1747250790057331629,-0.167,,712
1747250790065018681,-0.182
1747250790072705733,-0.182
1747250790080392785,-0.177
1747250790088079837,-0.167
1747250790095766889,-0.162
1747250790103453941,-0.164
1747250790111140993,-0.164
1747250790118828045,-0.169
1747250790126515097,-0.201
1747250790134202149,-0.28300000000000003
1747250790141889201,-0.295
1747250790149576253,0.135
1747250790157263305,1.048
1747250790164950357,1.809
1747250790172637409,1.6560000000000001
1747250790180324461,0.418
1747250790188011513,-0.681
1747250790195698565,-0.536
1747250790203385617,-0.137
1747250790211072669,-0.268
1747250790218759721,-0.324
1747250790226446773,-0.199
1747250790234133825,-0.201
1747250790241820877,-0.219
1747250790249507929,-0.157
1747250790257194981,-0.135
1747250790264882033,-0.135
1747250790272569085,-0.105
1747250790280256137,-0.076
1747250790287943189,-0.059000000000000004
1747250790295630241,-0.036000000000000004
1747250790303317293,-0.012
1747250790311004345,0.019
1747250790318691397,0.061
