time,ecg,hr,rr,marker
1746650337230243890,0.041
1746650337237931917,0.056
1746650337245619944,0.076
1746650337253307971,0.049
1746650337260995998,0.004
1746650337268684025,0.034
1746650337276372052,0.096
1746650337284060079,0.096
1746650337291748106,0.08600000000000001
1746650337299436133,0.108
1746650337307124160,0.096
1746650337314812187,0.081
1746650337322500214,0.13
1746650337330188241,0.14
1746650337337876268,0.12
1746650337345564295,0.192
1746650337353252322,0.246
1746650337360940349,0.17500000000000002
1746650337368628376,0.133
1746650337376316403,0.209
1746650337384004430,0.219
1746650337391692457,0.147
1746650337399380484,0.15
1746650337407068511,0.18
1746650337414756538,0.128
1746650337422444565,0.039
1746650337430132592,-0.029
1746650337437820619,-0.066
1746650337445508646,-0.076
1746650337453196673,-0.08600000000000001
1746650337460884700,-0.08600000000000001
1746650337468572727,-0.069
1746650337476260754,-0.078
1746650337483948781,-0.115
1746650337491636808,-0.13
1746650337499324835,-0.106
1746650337507012862,-0.076
1746650337514700889,-0.076
1746650337522388916,-0.093
1746650337530076943,-0.073
1746650337537764970,-0.027
1746650337545452997,-0.044
1746650337553141024,-0.093
1746650337560829051,-0.073
1746650337568517078,-0.041
1746650337576205105,-0.051000000000000004
1746650337583893132,-0.064
1746650337591581159,-0.078
1746650337599269186,-0.091
1746650337606957213,-0.078
1746650337614645240,-0.076
1746650337622333267,-0.073
1746650337630021294,-0.039
1746650337637709321,-0.059000000000000004
1746650337645397348,-0.11
1746650337653085375,-0.093
1746650337660773402,-0.034
1746650337668461429,-0.022
1746650337676149456,-0.076
1746650337683837483,-0.091
1746650337691525510,-0.041
1746650337699213537,-0.049
1746650337706901564,-0.098
1746650337714589591,-0.076
1746650337722277618,-0.041
1746650337729965645,-0.024
1746650337737653672,0.004
1746650337745341699,-0.032
1746650337753029726,-0.073
1746650337760717753,-0.056
1746650337768405780,-0.054
1746650337776093807,-0.073
1746650337783781834,-0.054
1746650337791469910,-0.017,80,887
1746650337799158355,-0.007
1746650337806846800,-0.036000000000000004
1746650337814535245,-0.059000000000000004
1746650337822223690,-0.046
1746650337829912135,-0.051000000000000004
1746650337837600580,-0.059000000000000004
1746650337845289025,-0.012
1746650337852977470,0.007
1746650337860665915,-0.017
1746650337868354360,0.009000000000000001
1746650337876042805,0.027
1746650337883731250,-0.046
1746650337891419695,-0.081
1746650337899108140,-0.022
1746650337906796585,0.0
1746650337914485030,-0.069
1746650337922173475,-0.083
1746650337929861920,-0.009000000000000001
1746650337937550365,-0.014
1746650337945238810,-0.069
1746650337952927255,-0.044
1746650337960615700,0.009000000000000001
1746650337968304145,0.231
1746650337975992590,0.665
1746650337983681035,0.776
1746650337991369480,0.266
1746650337999057925,-0.28600000000000003
1746650338006746370,-0.35000000000000003
1746650338014434815,-0.18
1746650338022123260,-0.138
1746650338029811705,-0.11800000000000001
1746650338037500150,-0.044
1746650338045188595,-0.029
1746650338052877040,-0.064
1746650338060565485,-0.056
1746650338068253930,-0.027
1746650338075942375,-0.041
1746650338083630820,-0.07100000000000001
1746650338091319265,-0.044
1746650338099007710,0.004
1746650338106696155,0.009000000000000001
1746650338114384600,0.017
1746650338122073045,0.036000000000000004
1746650338129761490,0.036000000000000004
1746650338137449935,0.022
1746650338145138380,0.009000000000000001
1746650338152826825,0.014
1746650338160515270,0.027
1746650338168203715,0.027
1746650338175892160,0.046
1746650338183580605,0.10300000000000001
1746650338191269050,0.125
1746650338198957495,0.113
1746650338206645940,0.123
1746650338214334385,0.125
1746650338222022830,0.128
1746650338229711275,0.13
1746650338237399720,0.096
1746650338245088165,0.069
1746650338252776610,0.073
1746650338260465055,0.083
1746650338268153500,0.083
1746650338275841945,0.064
1746650338283530390,0.014
1746650338291218835,-0.034
1746650338298907280,-0.069
1746650338306595725,-0.088
1746650338314284170,-0.12
1746650338321972615,-0.152
1746650338329661060,-0.12
1746650338337349505,-0.091
1746650338345037950,-0.101
1746650338352726448,-0.093,79,923
1746650338360414475,-0.098
1746650338368102502,-0.106
1746650338375790529,-0.08600000000000001
1746650338383478556,-0.088
1746650338391166583,-0.106
1746650338398854610,-0.093
1746650338406542637,-0.081
1746650338414230664,-0.081
1746650338421918691,-0.064
1746650338429606718,-0.064
1746650338437294745,-0.101
1746650338444982772,-0.10300000000000001
1746650338452670799,-0.093
1746650338460358826,-0.125
1746650338468046853,-0.12
1746650338475734880,-0.073
1746650338483422907,-0.073
1746650338491110934,-0.101
1746650338498798961,-0.106
1746650338506486988,-0.096
1746650338514175015,-0.08600000000000001
1746650338521863042,-0.091
1746650338529551069,-0.101
1746650338537239096,-0.101
1746650338544927123,-0.11800000000000001
1746650338552615150,-0.11800000000000001
1746650338560303177,-0.066
1746650338567991204,-0.041
1746650338575679231,-0.081
1746650338583367258,-0.10300000000000001
1746650338591055285,-0.081
1746650338598743312,-0.061
1746650338606431339,-0.069
1746650338614119366,-0.088
1746650338621807393,-0.096
1746650338629495420,-0.093
1746650338637183447,-0.08600000000000001
1746650338644871474,-0.059000000000000004
1746650338652559501,-0.041
1746650338660247528,-0.073
1746650338667935555,-0.091
1746650338675623582,-0.061
1746650338683311609,-0.051000000000000004
1746650338690999636,-0.081
1746650338698687663,-0.08600000000000001
1746650338706375690,-0.039
1746650338714063717,-0.004
1746650338721751744,-0.032
1746650338729439771,-0.073
1746650338737127798,-0.076
1746650338744815825,-0.069
1746650338752503852,-0.083
1746650338760191879,-0.088
1746650338767879906,-0.083
1746650338775567933,-0.091
1746650338783255960,-0.088
1746650338790943987,-0.083
1746650338798632014,-0.113
1746650338806320041,-0.08600000000000001
1746650338814008068,0.197
1746650338821696095,0.638
1746650338829384122,0.678
1746650338837072149,0.138
1746650338844760176,-0.372
1746650338852448203,-0.406
1746650338860136230,-0.256
1746650338867824257,-0.219
1746650338875512284,-0.192
1746650338883200311,-0.11800000000000001
1746650338890888338,-0.096
1746650338898576365,-0.088
1746650338906264392,-0.059000000000000004
1746650338913952468,-0.064
1746650338921640774,-0.064
1746650338929329080,-0.036000000000000004
1746650338937017386,-0.036000000000000004
1746650338944705692,-0.049
1746650338952393998,-0.036000000000000004
1746650338960082304,-0.029
1746650338967770610,-0.036000000000000004
1746650338975458916,-0.019
1746650338983147222,0.002
1746650338990835528,-0.002
1746650338998523834,-0.004
1746650339006212140,0.004
1746650339013900446,0.032
1746650339021588752,0.049
1746650339029277058,0.049
1746650339036965364,0.078
1746650339044653670,0.11
1746650339052341976,0.096
1746650339060030282,0.091
1746650339067718588,0.12
1746650339075406894,0.128
1746650339083095200,0.11
1746650339090783506,0.098
1746650339098471812,0.08600000000000001
1746650339106160118,0.059000000000000004
1746650339113848424,0.019
1746650339121536730,-0.019
1746650339129225036,-0.051000000000000004
1746650339136913342,-0.08600000000000001
1746650339144601648,-0.12
1746650339152289954,-0.145
1746650339159978260,-0.157
1746650339167666566,-0.16
1746650339175354872,-0.157
1746650339183043178,-0.15
1746650339190731484,-0.14300000000000002
1746650339198419790,-0.145
1746650339206108096,-0.14
1746650339213796402,-0.128
1746650339221484708,-0.11800000000000001
1746650339229173014,-0.113
1746650339236861320,-0.106
1746650339244549626,-0.096
1746650339252237932,-0.08600000000000001
1746650339259926238,-0.083
1746650339267614544,-0.081
1746650339275302850,-0.076
1746650339282991156,-0.073
1746650339290679462,-0.08600000000000001
1746650339298367768,-0.088
1746650339306056074,-0.081
1746650339313744380,-0.091
1746650339321432686,-0.08600000000000001
1746650339329120992,-0.064
1746650339336809298,-0.07100000000000001
1746650339344497604,-0.078
1746650339352185910,-0.076
1746650339359874216,-0.08600000000000001
1746650339367562522,-0.093
1746650339375250828,-0.076
1746650339382939134,-0.061
1746650339390627440,-0.066
1746650339398315746,-0.078
1746650339406004052,-0.083
1746650339413692358,-0.078
1746650339421380664,-0.064
1746650339429068970,-0.051000000000000004
1746650339436757276,-0.041
1746650339444445582,-0.039
1746650339452133888,-0.024
1746650339459822194,-0.004
1746650339467510500,-0.022
1746650339475198832,-0.046,77,791
1746650339482887208,-0.034,,852
1746650339490575584,-0.027
1746650339498263960,-0.049
1746650339505952336,-0.054
1746650339513640712,-0.036000000000000004
1746650339521329088,-0.032
1746650339529017464,-0.036000000000000004
1746650339536705840,-0.051000000000000004
1746650339544394216,-0.056
1746650339552082592,0.155
1746650339559770968,0.648
1746650339567459344,0.86
1746650339575147720,0.357
1746650339582836096,-0.295
1746650339590524472,-0.41600000000000004
1746650339598212848,-0.23900000000000002
1746650339605901224,-0.197
1746650339613589600,-0.165
1746650339621277976,-0.041
1746650339628966352,0.007
1746650339636654728,-0.019
1746650339644343104,-0.014
1746650339652031480,0.012
1746650339659719856,0.009000000000000001
1746650339667408232,0.017
1746650339675096608,0.039
1746650339682784984,0.039
1746650339690473360,0.036000000000000004
1746650339698161736,0.046
1746650339705850112,0.054
1746650339713538488,0.061
1746650339721226864,0.07100000000000001
1746650339728915240,0.078
1746650339736603616,0.091
1746650339744291992,0.106
1746650339751980368,0.12
1746650339759668744,0.135
1746650339767357120,0.14300000000000002
1746650339775045496,0.155
1746650339782733872,0.177
1746650339790422248,0.202
1746650339798110624,0.226
1746650339805799000,0.231
1746650339813487376,0.221
1746650339821175752,0.212
1746650339828864128,0.20400000000000001
1746650339836552504,0.197
1746650339844240880,0.17
1746650339851929256,0.11
1746650339859617632,0.064
1746650339867306008,0.044
1746650339874994384,0.019
1746650339882682760,-0.017
1746650339890371136,-0.051000000000000004
1746650339898059512,-0.069
1746650339905747888,-0.069
1746650339913436264,-0.059000000000000004
1746650339921124640,-0.046
1746650339928813016,-0.044
1746650339936501392,-0.054
1746650339944189768,-0.051000000000000004
1746650339951878144,-0.019
1746650339959566520,0.002
1746650339967254896,-0.014
1746650339974943272,-0.019
1746650339982631648,0.004
1746650339990320024,0.002
1746650339998008400,-0.009000000000000001
1746650340005696776,0.004
1746650340013385152,0.012
1746650340021073528,0.004
1746650340028761904,-0.007
1746650340036450283,-0.012
1746650340044138519,-0.009000000000000001
1746650340051826755,-0.002
1746650340059514991,-0.004
1746650340067203227,-0.002
1746650340074891463,0.004
1746650340082579699,0.0
1746650340090267935,-0.004
1746650340097956171,0.004
1746650340105644407,0.002
1746650340113332643,-0.007
1746650340121020879,-0.002
1746650340128709115,0.009000000000000001
1746650340136397351,0.012
1746650340144085587,0.0
1746650340151773823,-0.004
1746650340159462059,-0.002
1746650340167150295,-0.009000000000000001
1746650340174838531,-0.009000000000000001
1746650340182526767,0.012
1746650340190215003,0.032
1746650340197903239,0.034
1746650340205591475,0.041
1746650340213279711,0.049
1746650340220967947,0.032
1746650340228656183,0.007
1746650340236344419,0.009000000000000001
1746650340244032655,0.017
1746650340251720891,0.017
1746650340259409127,0.019
1746650340267097363,0.014
1746650340274785599,0.012
1746650340282473835,0.007
1746650340290162071,-0.029
1746650340297850307,-0.007
1746650340305538543,0.273
1746650340313226779,0.752
1746650340320915015,0.87
1746650340328603251,0.337
1746650340336291487,-0.246
1746650340343979723,-0.323
1746650340351667959,-0.167
1746650340359356195,-0.147
1746650340367044431,-0.11800000000000001
1746650340374732667,-0.014
1746650340382420903,0.014
1746650340390109139,-0.007
1746650340397797375,-0.002
1746650340405485611,0.012
1746650340413173847,0.017
1746650340420862083,0.022
1746650340428550319,0.041
1746650340436238555,0.044
1746650340443926791,0.032
1746650340451615027,0.046
1746650340459303263,0.056
1746650340466991499,0.039
1746650340474679735,0.039
1746650340482367971,0.069
1746650340490056207,0.081
1746650340497744443,0.076
1746650340505432679,0.088
1746650340513120915,0.106
1746650340520809151,0.113
1746650340528497387,0.128
1746650340536185623,0.14300000000000002
1746650340543873859,0.157
1746650340551562095,0.17500000000000002
1746650340559250331,0.182
1746650340566938567,0.177
1746650340574626803,0.17500000000000002
1746650340582315039,0.17200000000000001
1746650340590003275,0.155
1746650340597691564,0.133,77,845
1746650340605380009,0.10300000000000001
1746650340613068454,0.064
1746650340620756899,0.024
1746650340628445344,-0.012
1746650340636133789,-0.044
1746650340643822234,-0.069
1746650340651510679,-0.083
1746650340659199124,-0.083
1746650340666887569,-0.08600000000000001
1746650340674576014,-0.093
1746650340682264459,-0.088
1746650340689952904,-0.073
1746650340697641349,-0.07100000000000001
1746650340705329794,-0.07100000000000001
1746650340713018239,-0.056
1746650340720706684,-0.051000000000000004
1746650340728395129,-0.056
1746650340736083574,-0.051000000000000004
1746650340743772019,-0.041
1746650340751460464,-0.036000000000000004
1746650340759148909,-0.046
1746650340766837354,-0.056
1746650340774525799,-0.046
1746650340782214244,-0.039
1746650340789902689,-0.056
1746650340797591134,-0.069
1746650340805279579,-0.051000000000000004
1746650340812968024,-0.041
1746650340820656469,-0.054
1746650340828344914,-0.059000000000000004
1746650340836033359,-0.046
1746650340843721804,-0.051000000000000004
1746650340851410249,-0.061
1746650340859098694,-0.051000000000000004
1746650340866787139,-0.046
1746650340874475584,-0.049
1746650340882164029,-0.046
1746650340889852474,-0.046
1746650340897540919,-0.054
1746650340905229364,-0.061
1746650340912917809,-0.061
1746650340920606254,-0.054
1746650340928294699,-0.036000000000000004
1746650340935983144,-0.022
1746650340943671589,-0.017
1746650340951360034,-0.004
1746650340959048479,-0.007
1746650340966736924,-0.039
1746650340974425369,-0.051000000000000004
1746650340982113814,-0.034
1746650340989802259,-0.041
1746650340997490704,-0.054
1746650341005179149,-0.046
1746650341012867594,-0.044
1746650341020556039,-0.049
1746650341028244484,-0.064
1746650341035932929,-0.088
1746650341043621374,0.0
1746650341051309819,0.372
1746650341058998264,0.791
1746650341066686709,0.687
1746650341074375154,0.07100000000000001
1746650341082063599,-0.362
1746650341089752044,-0.318
1746650341097440489,-0.199
1746650341105128934,-0.197
1746650341112817379,-0.135
1746650341120505824,-0.056
1746650341128194269,-0.066
1746650341135882714,-0.07100000000000001
1746650341143571159,-0.039
1746650341151259604,-0.034
1746650341158948102,-0.036000000000000004
1746650341166636129,-0.022
1746650341174324156,-0.017
1746650341182012183,-0.024
1746650341189700210,-0.019
1746650341197388237,-0.012
1746650341205076264,-0.009000000000000001
1746650341212764291,-0.009000000000000001
1746650341220452318,0.0
1746650341228140345,0.017
1746650341235828372,0.029
1746650341243516399,0.036000000000000004
1746650341251204426,0.039
1746650341258892453,0.054
1746650341266580480,0.07100000000000001
1746650341274268507,0.08600000000000001
1746650341281956534,0.101
1746650341289644561,0.115
1746650341297332588,0.12
1746650341305020615,0.128
1746650341312708642,0.133
1746650341320396669,0.13
1746650341328084696,0.128
1746650341335772723,0.11
1746650341343460750,0.069
1746650341351148777,0.029
1746650341358836804,0.0
1746650341366524831,-0.039
1746650341374212858,-0.083
1746650341381900885,-0.11
1746650341389588912,-0.125
1746650341397276939,-0.14
1746650341404964966,-0.14
1746650341412652993,-0.128
1746650341420341020,-0.125
1746650341428029047,-0.125
1746650341435717074,-0.12
1746650341443405101,-0.11
1746650341451093128,-0.10300000000000001
1746650341458781155,-0.108
1746650341466469182,-0.106
1746650341474157209,-0.091
1746650341481845236,-0.08600000000000001
1746650341489533263,-0.098
1746650341497221290,-0.091
1746650341504909317,-0.076
1746650341512597344,-0.088
1746650341520285371,-0.093
1746650341527973398,-0.083
1746650341535661425,-0.08600000000000001
1746650341543349452,-0.093
1746650341551037479,-0.088
1746650341558725506,-0.093
1746650341566413533,-0.093
1746650341574101560,-0.073
1746650341581789587,-0.073
1746650341589477614,-0.08600000000000001
1746650341597165641,-0.081
1746650341604853668,-0.081
1746650341612541695,-0.091
1746650341620229722,-0.08600000000000001
1746650341627917749,-0.078
1746650341635605776,-0.07100000000000001
1746650341643293803,-0.049
1746650341650981830,-0.032
1746650341658669857,-0.022
1746650341666357884,-0.027
1746650341674045911,-0.046
1746650341681733938,-0.054
1746650341689421965,-0.049
1746650341697109992,-0.051000000000000004
1746650341704798019,-0.054
1746650341712486046,-0.051000000000000004
1746650341720174118,-0.046,76,739
1746650341727862494,-0.039
1746650341735550870,-0.054
1746650341743239246,-0.08600000000000001
1746650341750927622,-0.034
1746650341758615998,0.281
1746650341766304374,0.729
1746650341773992750,0.739
1746650341781681126,0.138
1746650341789369502,-0.384
1746650341797057878,-0.379
1746650341804746254,-0.224
1746650341812434630,-0.20700000000000002
1746650341820123006,-0.152
1746650341827811382,-0.051000000000000004
1746650341835499758,-0.046
1746650341843188134,-0.061
1746650341850876510,-0.014
1746650341858564886,0.007
1746650341866253262,-0.009000000000000001
1746650341873941638,0.0
1746650341881630014,0.017
1746650341889318390,0.007
1746650341897006766,0.004
1746650341904695142,0.024
1746650341912383518,0.032
1746650341920071894,0.022
1746650341927760270,0.029
1746650341935448646,0.054
1746650341943137022,0.066
1746650341950825398,0.066
1746650341958513774,0.08600000000000001
1746650341966202150,0.106
1746650341973890526,0.10300000000000001
1746650341981578902,0.115
1746650341989267278,0.147
1746650341996955654,0.165
1746650342004644030,0.17
1746650342012332406,0.177
1746650342020020782,0.167
1746650342027709158,0.16
1746650342035397534,0.167
1746650342043085910,0.152
1746650342050774286,0.108
1746650342058462662,0.069
1746650342066151038,0.036000000000000004
1746650342073839414,-0.004
1746650342081527790,-0.044
1746650342089216166,-0.076
1746650342096904542,-0.101
1746650342104592918,-0.106
1746650342112281294,-0.101
1746650342119969670,-0.10300000000000001
1746650342127658046,-0.106
1746650342135346422,-0.091
1746650342143034798,-0.083
1746650342150723174,-0.078
1746650342158411550,-0.069
1746650342166099926,-0.064
1746650342173788302,-0.064
1746650342181476678,-0.059000000000000004
1746650342189165054,-0.051000000000000004
1746650342196853430,-0.049
1746650342204541806,-0.054
1746650342212230182,-0.054
1746650342219918558,-0.049
1746650342227606934,-0.049
1746650342235295310,-0.051000000000000004
1746650342242983686,-0.056
1746650342250672062,-0.059000000000000004
1746650342258360438,-0.049
1746650342266048814,-0.049
1746650342273737190,-0.064
1746650342281425573,-0.066
1746650342289113949,-0.061
1746650342296802325,-0.061
1746650342304490701,-0.056
1746650342312179077,-0.059000000000000004
1746650342319867453,-0.059000000000000004
1746650342327555829,-0.056
1746650342335244205,-0.064
1746650342342932581,-0.076
1746650342350620957,-0.076
1746650342358309333,-0.064
1746650342365997709,-0.036000000000000004
1746650342373686085,-0.029
1746650342381374461,-0.039
1746650342389062837,-0.024
1746650342396751213,-0.014
1746650342404439589,-0.034
1746650342412127965,-0.049
1746650342419816341,-0.046
1746650342427504717,-0.054
1746650342435193093,-0.056
1746650342442881469,-0.049
1746650342450569845,-0.051000000000000004
1746650342458258221,-0.059000000000000004
1746650342465946597,-0.066
1746650342473634973,-0.096
1746650342481323349,-0.029
1746650342489011725,0.34700000000000003
1746650342496700101,0.793
1746650342504388477,0.715
1746650342512076853,0.101
1746650342519765229,-0.35000000000000003
1746650342527453605,-0.31
1746650342535141981,-0.189
1746650342542830357,-0.192
1746650342550518733,-0.138
1746650342558207109,-0.069
1746650342565895485,-0.081
1746650342573583861,-0.076
1746650342581272237,-0.044
1746650342588960613,-0.041
1746650342596648989,-0.046
1746650342604337365,-0.036000000000000004
1746650342612025741,-0.029
1746650342619714117,-0.022
1746650342627402493,-0.012
1746650342635090869,-0.012
1746650342642779245,-0.012
1746650342650467621,-0.007
1746650342658155997,-0.007
1746650342665844373,0.0
1746650342673532749,0.017
1746650342681221125,0.027
1746650342688909501,0.029
1746650342696597877,0.041
1746650342704286253,0.066
1746650342711974629,0.081
1746650342719663005,0.093
1746650342727351381,0.11
1746650342735039757,0.113
1746650342742728133,0.11
1746650342750416509,0.123
1746650342758104885,0.128
1746650342765793261,0.11800000000000001
1746650342773481637,0.101
1746650342781170013,0.078
1746650342788858389,0.041
1746650342796546765,-0.002
1746650342804235141,-0.041
1746650342811923517,-0.081
1746650342819611893,-0.10300000000000001
1746650342827300269,-0.108
1746650342834988645,-0.11800000000000001
1746650342842677024,-0.11800000000000001,76,753
1746650342850365400,-0.12,,743
1746650342858053776,-0.133
1746650342865742152,-0.13
1746650342873430528,-0.108
1746650342881118904,-0.098
1746650342888807280,-0.108
1746650342896495656,-0.11
1746650342904184032,-0.101
1746650342911872408,-0.098
1746650342919560784,-0.10300000000000001
1746650342927249160,-0.101
1746650342934937536,-0.093
1746650342942625912,-0.096
1746650342950314288,-0.108
1746650342958002664,-0.101
1746650342965691040,-0.088
1746650342973379416,-0.098
1746650342981067792,-0.11
1746650342988756168,-0.106
1746650342996444544,-0.106
1746650343004132920,-0.098
1746650343011821296,-0.091
1746650343019509672,-0.093
1746650343027198048,-0.093
1746650343034886424,-0.096
1746650343042574800,-0.10300000000000001
1746650343050263176,-0.106
1746650343057951552,-0.101
1746650343065639928,-0.096
1746650343073328304,-0.096
1746650343081016680,-0.10300000000000001
1746650343088705056,-0.093
1746650343096393432,-0.069
1746650343104081808,-0.061
1746650343111770184,-0.064
1746650343119458560,-0.056
1746650343127146936,-0.056
1746650343134835312,-0.076
1746650343142523688,-0.088
1746650343150212064,-0.083
1746650343157900440,-0.083
1746650343165588816,-0.091
1746650343173277192,-0.081
1746650343180965568,-0.073
1746650343188653944,-0.093
1746650343196342320,-0.128
1746650343204030696,-0.08600000000000001
1746650343211719072,0.216
1746650343219407448,0.675
1746650343227095824,0.744
1746650343234784200,0.202
1746650343242472576,-0.34
1746650343250160952,-0.374
1746650343257849328,-0.226
1746650343265537704,-0.226
1746650343273226080,-0.197
1746650343280914456,-0.096
1746650343288602832,-0.083
1746650343296291208,-0.106
1746650343303979584,-0.081
1746650343311667960,-0.059000000000000004
1746650343319356336,-0.059000000000000004
1746650343327044712,-0.059000000000000004
1746650343334733088,-0.064
1746650343342421464,-0.059000000000000004
1746650343350109840,-0.046
1746650343357798216,-0.041
1746650343365486592,-0.039
1746650343373174968,-0.034
1746650343380863344,-0.022
1746650343388551720,-0.009000000000000001
1746650343396240096,-0.002
1746650343403928475,0.007,77,708
1746650343411616711,0.014
1746650343419304947,0.027
1746650343426993183,0.039
1746650343434681419,0.051000000000000004
1746650343442369655,0.064
1746650343450057891,0.088
1746650343457746127,0.098
1746650343465434363,0.083
1746650343473122599,0.08600000000000001
1746650343480810835,0.106
1746650343488499071,0.10300000000000001
1746650343496187307,0.081
1746650343503875543,0.056
1746650343511563779,0.024
1746650343519252015,-0.027
1746650343526940251,-0.069
1746650343534628487,-0.096
1746650343542316723,-0.123
1746650343550004959,-0.145
1746650343557693195,-0.145
1746650343565381431,-0.14
1746650343573069667,-0.145
1746650343580757903,-0.145
1746650343588446139,-0.145
1746650343596134375,-0.145
1746650343603822611,-0.135
1746650343611510847,-0.123
1746650343619199083,-0.11800000000000001
1746650343626887319,-0.11800000000000001
1746650343634575555,-0.113
1746650343642263791,-0.11
1746650343649952027,-0.115
1746650343657640263,-0.123
1746650343665328499,-0.11800000000000001
1746650343673016735,-0.10300000000000001
1746650343680704971,-0.108
1746650343688393207,-0.123
1746650343696081443,-0.123
1746650343703769679,-0.115
1746650343711457915,-0.11
1746650343719146151,-0.10300000000000001
1746650343726834387,-0.106
1746650343734522623,-0.113
1746650343742210859,-0.108
1746650343749899095,-0.101
1746650343757587331,-0.108
1746650343765275567,-0.115
1746650343772963803,-0.11
1746650343780652039,-0.108
1746650343788340275,-0.108
1746650343796028511,-0.093
1746650343803716747,-0.069
1746650343811404983,-0.061
1746650343819093219,-0.059000000000000004
1746650343826781455,-0.051000000000000004
1746650343834469691,-0.051000000000000004
1746650343842157927,-0.061
1746650343849846163,-0.073
1746650343857534399,-0.083
1746650343865222635,-0.081
1746650343872910871,-0.07100000000000001
1746650343880599107,-0.066
1746650343888287343,-0.076
1746650343895975579,-0.091
1746650343903663815,-0.108
1746650343911352051,-0.017
1746650343919040287,0.362
1746650343926728523,0.771
1746650343934416759,0.577
1746650343942104995,-0.13
1746650343949793231,-0.512
1746650343957481467,-0.369
1746650343965169756,-0.23600000000000002
1746650343972857853,-0.231
1746650343980545950,-0.147
1746650343988234047,-0.054
1746650343995922144,-0.049
1746650344003610241,-0.051000000000000004
1746650344011298338,-0.022
1746650344018986435,-0.002
1746650344026674532,-0.019
1746650344034362629,-0.032
1746650344042050726,-0.014
1746650344049738823,0.004
1746650344057426920,0.002
1746650344065115017,0.0
1746650344072803114,0.017
1746650344080491211,0.034
1746650344088179308,0.039
1746650344095867405,0.044
1746650344103555502,0.059000000000000004
1746650344111243599,0.076
1746650344118931696,0.088
1746650344126619793,0.098
1746650344134307890,0.101
1746650344141995987,0.115
1746650344149684084,0.147
1746650344157372181,0.162
1746650344165060278,0.157
1746650344172748375,0.157
1746650344180436472,0.165
1746650344188124569,0.165
1746650344195812666,0.157
1746650344203500763,0.13
1746650344211188860,0.081
1746650344218876957,0.034
1746650344226565054,-0.007
1746650344234253151,-0.051000000000000004
1746650344241941248,-0.081
1746650344249629345,-0.098
1746650344257317442,-0.113
1746650344265005539,-0.108
1746650344272693636,-0.108
1746650344280381733,-0.128
1746650344288069830,-0.125
1746650344295757927,-0.106
1746650344303446024,-0.101
1746650344311134121,-0.093
1746650344318822218,-0.076
1746650344326510315,-0.069
1746650344334198412,-0.064
1746650344341886509,-0.051000000000000004
1746650344349574606,-0.054
1746650344357262703,-0.069
1746650344364950800,-0.064
1746650344372638897,-0.059000000000000004
1746650344380326994,-0.066
1746650344388015091,-0.066
1746650344395703188,-0.064
1746650344403391285,-0.073
1746650344411079382,-0.078
1746650344418767479,-0.069
1746650344426455576,-0.069
1746650344434143673,-0.073
1746650344441831770,-0.073
1746650344449519867,-0.078
1746650344457207964,-0.081
1746650344464896061,-0.076
1746650344472584158,-0.069
1746650344480272255,-0.051000000000000004
1746650344487960352,-0.036000000000000004
1746650344495648449,-0.044
1746650344503336546,-0.036000000000000004
1746650344511024643,-0.019
1746650344518712740,-0.029
1746650344526400859,-0.044,78,729
1746650344534089235,-0.044,,725
1746650344541777611,-0.046
1746650344549465987,-0.049
1746650344557154363,-0.041
1746650344564842739,-0.044
1746650344572531115,-0.054
1746650344580219491,-0.059000000000000004
1746650344587907867,-0.081
1746650344595596243,-0.041
1746650344603284619,0.276
1746650344610972995,0.737
1746650344618661371,0.6920000000000001
1746650344626349747,0.012
1746650344634038123,-0.49
1746650344641726499,-0.392
1746650344649414875,-0.212
1746650344657103251,-0.216
1746650344664791627,-0.152
1746650344672480003,-0.039
1746650344680168379,-0.027
1746650344687856755,-0.032
1746650344695545131,-0.002
1746650344703233507,0.017
1746650344710921883,0.017
1746650344718610259,0.004
1746650344726298635,0.004
1746650344733987011,0.024
1746650344741675387,0.044
1746650344749363763,0.041
1746650344757052139,0.039
1746650344764740515,0.054
1746650344772428891,0.059000000000000004
1746650344780117267,0.059000000000000004
1746650344787805643,0.073
1746650344795494019,0.083
1746650344803182395,0.088
1746650344810870771,0.106
1746650344818559147,0.128
1746650344826247523,0.133
1746650344833935899,0.138
1746650344841624275,0.162
1746650344849312651,0.187
1746650344857001027,0.18
1746650344864689403,0.165
1746650344872377779,0.17
1746650344880066155,0.167
1746650344887754531,0.145
1746650344895442907,0.11
1746650344903131283,0.076
1746650344910819659,0.036000000000000004
1746650344918508035,-0.007
1746650344926196411,-0.039
1746650344933884787,-0.051000000000000004
1746650344941573163,-0.073
1746650344949261539,-0.096
1746650344956949915,-0.08600000000000001
1746650344964638291,-0.07100000000000001
1746650344972326667,-0.083
1746650344980015043,-0.078
1746650344987703419,-0.059000000000000004
1746650344995391795,-0.051000000000000004
1746650345003080171,-0.046
1746650345010768547,-0.034
1746650345018456923,-0.034
1746650345026145299,-0.044
1746650345033833675,-0.041
1746650345041522051,-0.029
1746650345049210427,-0.022
1746650345056898803,-0.029
1746650345064587179,-0.044
1746650345072275555,-0.039
1746650345079963931,-0.024
1746650345087652314,-0.036000000000000004
1746650345095340690,-0.046
1746650345103029066,-0.041
1746650345110717442,-0.041
1746650345118405818,-0.044
1746650345126094194,-0.036000000000000004
1746650345133782570,-0.036000000000000004
1746650345141470946,-0.034
1746650345149159322,-0.024
1746650345156847698,-0.027
1746650345164536074,-0.041
1746650345172224450,-0.041
1746650345179912826,-0.029
1746650345187601202,-0.032
1746650345195289578,-0.036000000000000004
1746650345202977954,-0.029
1746650345210666330,-0.036000000000000004
1746650345218354706,-0.039
1746650345226043082,-0.004
1746650345233731458,0.012
1746650345241419834,-0.002
1746650345249108210,-0.007
1746650345256796586,-0.002
1746650345264484962,-0.012
1746650345272173338,-0.017
1746650345279861714,-0.009000000000000001
1746650345287550090,-0.007
1746650345295238466,-0.007
1746650345302926842,-0.007
1746650345310615218,-0.022
1746650345318303594,-0.029
1746650345325991970,-0.051000000000000004
1746650345333680346,-0.069
1746650345341368722,0.128
1746650345349057098,0.621
1746650345356745474,0.9410000000000001
1746650345364433850,0.591
1746650345372122226,-0.096
1746650345379810602,-0.34500000000000003
1746650345387498978,-0.182
1746650345395187354,-0.14
1746650345402875730,-0.162
1746650345410564106,-0.059000000000000004
1746650345418252482,-0.017
1746650345425940858,-0.049
1746650345433629234,-0.029
1746650345441317610,0.0
1746650345449005986,-0.012
1746650345456694362,-0.022
1746650345464382738,-0.007
1746650345472071114,0.007
1746650345479759490,0.012
1746650345487447866,0.017
1746650345495136242,0.007
1746650345502824618,0.009000000000000001
1746650345510512994,0.027
1746650345518201370,0.029
1746650345525889746,0.024
1746650345533578122,0.039
1746650345541266498,0.059000000000000004
1746650345548954874,0.066
1746650345556643250,0.07100000000000001
1746650345564331626,0.081
1746650345572020002,0.096
1746650345579708378,0.11800000000000001
1746650345587396754,0.128
1746650345595085130,0.125
1746650345602773506,0.13
1746650345610461882,0.138
1746650345618150258,0.135
1746650345625838634,0.13
1746650345633527010,0.128
1746650345641215386,0.101
1746650345648903765,0.066,78,704
1746650345656591862,0.041
1746650345664279959,0.0
1746650345671968056,-0.049
1746650345679656153,-0.064
1746650345687344250,-0.064
1746650345695032347,-0.076
1746650345702720444,-0.073
1746650345710408541,-0.064
1746650345718096638,-0.07100000000000001
1746650345725784735,-0.078
1746650345733472832,-0.069
1746650345741160929,-0.061
1746650345748849026,-0.061
1746650345756537123,-0.054
1746650345764225220,-0.054
1746650345771913317,-0.064
1746650345779601414,-0.064
1746650345787289511,-0.054
1746650345794977608,-0.059000000000000004
1746650345802665705,-0.064
1746650345810353802,-0.054
1746650345818041899,-0.054
1746650345825729996,-0.066
1746650345833418093,-0.054
1746650345841106190,-0.041
1746650345848794287,-0.061
1746650345856482384,-0.078
1746650345864170481,-0.061
1746650345871858578,-0.051000000000000004
1746650345879546675,-0.059000000000000004
1746650345887234772,-0.066
1746650345894922869,-0.059000000000000004
1746650345902610966,-0.049
1746650345910299063,-0.044
1746650345917987160,-0.046
1746650345925675257,-0.056
1746650345933363354,-0.061
1746650345941051451,-0.049
1746650345948739548,-0.041
1746650345956427645,-0.046
1746650345964115742,-0.056
1746650345971803839,-0.061
1746650345979491936,-0.056
1746650345987180033,-0.039
1746650345994868130,-0.024
1746650346002556227,-0.024
1746650346010244324,-0.017
1746650346017932421,-0.009000000000000001
1746650346025620518,-0.024
1746650346033308615,-0.041
1746650346040996712,-0.041
1746650346048684809,-0.036000000000000004
1746650346056372906,-0.032
1746650346064061003,-0.034
1746650346071749100,-0.044
1746650346079437197,-0.046
1746650346087125294,-0.046
1746650346094813391,-0.076
1746650346102501488,-0.061
1746650346110189585,0.20700000000000002
1746650346117877682,0.675
1746650346125565779,0.803
1746650346133253876,0.313
1746650346140941973,-0.249
1746650346148630070,-0.332
1746650346156318167,-0.189
1746650346164006264,-0.18
1746650346171694361,-0.16
1746650346179382458,-0.069
1746650346187070555,-0.054
1746650346194758652,-0.076
1746650346202446749,-0.054
1746650346210134872,-0.027
1746650346217823317,-0.024
1746650346225511762,-0.029
1746650346233200207,-0.027
1746650346240888652,-0.029
1746650346248577097,-0.027
1746650346256265542,-0.017
1746650346263953987,-0.009000000000000001
1746650346271642432,0.0
1746650346279330877,0.007
1746650346287019322,0.009000000000000001
1746650346294707767,0.012
1746650346302396212,0.027
1746650346310084657,0.036000000000000004
1746650346317773102,0.036000000000000004
1746650346325461547,0.051000000000000004
1746650346333149992,0.07100000000000001
1746650346340838437,0.081
1746650346348526882,0.093
1746650346356215327,0.108
1746650346363903772,0.115
1746650346371592217,0.108
1746650346379280662,0.096
1746650346386969107,0.101
1746650346394657552,0.106
1746650346402345997,0.091
1746650346410034442,0.066
1746650346417722887,0.027
1746650346425411332,-0.019
1746650346433099777,-0.044
1746650346440788222,-0.061
1746650346448476667,-0.088
1746650346456165112,-0.096
1746650346463853557,-0.096
1746650346471542002,-0.108
1746650346479230447,-0.11
1746650346486918892,-0.101
1746650346494607337,-0.096
1746650346502295782,-0.096
1746650346509984227,-0.098
1746650346517672672,-0.098
1746650346525361117,-0.091
1746650346533049562,-0.08600000000000001
1746650346540738007,-0.08600000000000001
1746650346548426452,-0.08600000000000001
1746650346556114897,-0.083
1746650346563803342,-0.088
1746650346571491787,-0.091
1746650346579180232,-0.088
1746650346586868677,-0.088
1746650346594557122,-0.088
1746650346602245567,-0.08600000000000001
1746650346609934012,-0.091
1746650346617622457,-0.096
1746650346625310902,-0.08600000000000001
1746650346632999347,-0.081
1746650346640687792,-0.088
1746650346648376237,-0.081
1746650346656064682,-0.066
1746650346663753127,-0.07100000000000001
1746650346671441572,-0.08600000000000001
1746650346679130017,-0.096
1746650346686818462,-0.088
1746650346694506907,-0.073
1746650346702195352,-0.076
1746650346709883797,-0.083
1746650346717572242,-0.078
1746650346725260687,-0.066
1746650346732949132,-0.061
1746650346740637577,-0.066
1746650346748326022,-0.066
1746650346756014467,-0.07100000000000001
1746650346763702912,-0.078
1746650346771391410,-0.081,79,686
1746650346779079576,-0.07100000000000001
1746650346786767742,-0.059000000000000004
1746650346794455908,-0.059000000000000004
1746650346802144074,-0.051000000000000004
1746650346809832240,-0.029
1746650346817520406,-0.022
1746650346825208572,-0.039
1746650346832896738,-0.051000000000000004
1746650346840584904,-0.056
1746650346848273070,-0.069
1746650346855961236,-0.069
1746650346863649402,-0.061
1746650346871337568,-0.054
1746650346879025734,-0.051000000000000004
1746650346886713900,-0.064
1746650346894402066,-0.098
1746650346902090232,-0.083
1746650346909778398,0.15
1746650346917466564,0.596
1746650346925154730,0.749
1746650346932842896,0.271
1746650346940531062,-0.318
1746650346948219228,-0.41400000000000003
1746650346955907394,-0.234
1746650346963595560,-0.194
1746650346971283726,-0.184
1746650346978971892,-0.088
1746650346986660058,-0.054
1746650346994348224,-0.07100000000000001
1746650347002036390,-0.049
1746650347009724556,-0.041
1746650347017412722,-0.056
1746650347025100888,-0.041
1746650347032789054,-0.022
1746650347040477220,-0.017
1746650347048165386,-0.014
1746650347055853552,-0.017
1746650347063541718,-0.012
1746650347071229884,0.0
1746650347078918050,0.012
1746650347086606216,0.017
1746650347094294382,0.017
1746650347101982548,0.024
1746650347109670714,0.034
1746650347117358880,0.051000000000000004
1746650347125047046,0.069
1746650347132735212,0.081
1746650347140423378,0.091
1746650347148111544,0.096
1746650347155799710,0.10300000000000001
1746650347163487876,0.11800000000000001
1746650347171176042,0.123
1746650347178864208,0.11
1746650347186552374,0.098
1746650347194240540,0.096
1746650347201928706,0.096
1746650347209616872,0.07100000000000001
1746650347217305038,0.034
1746650347224993204,0.0
1746650347232681370,-0.036000000000000004
1746650347240369536,-0.073
1746650347248057702,-0.098
1746650347255745868,-0.108
1746650347263434034,-0.115
1746650347271122200,-0.12
1746650347278810366,-0.113
1746650347286498532,-0.101
1746650347294186698,-0.108
1746650347301874864,-0.106
1746650347309563030,-0.088
1746650347317251196,-0.078
1746650347324939362,-0.078
1746650347332627600,-0.073
1746650347340315906,-0.064
1746650347348004212,-0.061
1746650347355692518,-0.073
1746650347363380824,-0.07100000000000001
1746650347371069130,-0.066
1746650347378757436,-0.069
1746650347386445742,-0.066
1746650347394134048,-0.069
1746650347401822354,-0.078
1746650347409510660,-0.081
1746650347417198966,-0.073
1746650347424887272,-0.073
1746650347432575578,-0.078
1746650347440263884,-0.073
1746650347447952190,-0.066
1746650347455640496,-0.069
1746650347463328802,-0.064
1746650347471017108,-0.061
1746650347478705414,-0.07100000000000001
1746650347486393720,-0.07100000000000001
1746650347494082026,-0.064
1746650347501770332,-0.066
1746650347509458638,-0.069
1746650347517146944,-0.066
1746650347524835250,-0.059000000000000004
1746650347532523556,-0.054
1746650347540211862,-0.046
1746650347547900168,-0.039
1746650347555588474,-0.027
1746650347563276780,-0.017
1746650347570965086,-0.027
1746650347578653392,-0.039
1746650347586341698,-0.041
1746650347594030004,-0.044
1746650347601718310,-0.041
1746650347609406616,-0.036000000000000004
1746650347617094922,-0.036000000000000004
1746650347624783228,-0.044
1746650347632471534,-0.054
1746650347640159840,-0.076
1746650347647848146,-0.081
1746650347655536452,0.11
1746650347663224758,0.5640000000000001
1746650347670913064,0.803
1746650347678601370,0.374
1746650347686289676,-0.271
1746650347693977982,-0.419
1746650347701666288,-0.231
1746650347709354594,-0.187
1746650347717042900,-0.177
1746650347724731206,-0.061
1746650347732419512,-0.022
1746650347740107818,-0.041
1746650347747796124,-0.012
1746650347755484430,0.004
1746650347763172736,-0.017
1746650347770861042,-0.014
1746650347778549348,0.009000000000000001
1746650347786237654,0.009000000000000001
1746650347793925960,0.012
1746650347801614266,0.024
1746650347809302572,0.024
1746650347816990878,0.014
1746650347824679184,0.024
1746650347832367490,0.039
1746650347840055796,0.056
1746650347847744102,0.061
1746650347855432408,0.064
1746650347863120714,0.076
1746650347870809020,0.096
1746650347878497326,0.106
1746650347886185632,0.108
1746650347893873968,0.123,80,742
1746650347901562413,0.135
1746650347909250858,0.138
1746650347916939303,0.133
1746650347924627748,0.138
1746650347932316193,0.147
1746650347940004638,0.138
1746650347947693083,0.106
1746650347955381528,0.07100000000000001
1746650347963069973,0.046
1746650347970758418,0.012
1746650347978446863,-0.027
1746650347986135308,-0.056
1746650347993823753,-0.073
1746650348001512198,-0.088
1746650348009200643,-0.093
1746650348016889088,-0.08600000000000001
1746650348024577533,-0.088
1746650348032265978,-0.093
1746650348039954423,-0.081
1746650348047642868,-0.073
1746650348055331313,-0.073
1746650348063019758,-0.069
1746650348070708203,-0.064
1746650348078396648,-0.054
1746650348086085093,-0.046
1746650348093773538,-0.049
1746650348101461983,-0.059000000000000004
1746650348109150428,-0.056
1746650348116838873,-0.049
1746650348124527318,-0.054
1746650348132215763,-0.061
1746650348139904208,-0.059000000000000004
1746650348147592653,-0.056
1746650348155281098,-0.059000000000000004
1746650348162969543,-0.064
1746650348170657988,-0.061
1746650348178346433,-0.051000000000000004
1746650348186034878,-0.051000000000000004
1746650348193723323,-0.054
1746650348201411768,-0.051000000000000004
1746650348209100213,-0.049
1746650348216788658,-0.051000000000000004
1746650348224477103,-0.054
1746650348232165548,-0.049
1746650348239853993,-0.044
1746650348247542438,-0.041
1746650348255230883,-0.041
1746650348262919328,-0.049
1746650348270607773,-0.056
1746650348278296218,-0.054
1746650348285984663,-0.044
1746650348293673108,-0.029
1746650348301361553,-0.019
1746650348309049998,-0.014
1746650348316738443,-0.009000000000000001
1746650348324426888,-0.004
1746650348332115333,-0.017
1746650348339803778,-0.032
1746650348347492223,-0.027
1746650348355180668,-0.024
1746650348362869113,-0.032
1746650348370557558,-0.036000000000000004
1746650348378246003,-0.029
1746650348385934448,-0.029
1746650348393622893,-0.049
1746650348401311338,-0.093
1746650348408999783,-0.032
1746650348416688228,0.327
1746650348424376673,0.793
1746650348432065118,0.766
1746650348439753563,0.145
1746650348447442008,-0.34
1746650348455130506,-0.28600000000000003,80,767
1746650348462818533,-0.15,,800
1746650348470506560,-0.177
1746650348478194587,-0.125
1746650348485882614,-0.034
1746650348493570641,-0.046
1746650348501258668,-0.064
1746650348508946695,-0.034
1746650348516634722,-0.019
1746650348524322749,-0.019
1746650348532010776,-0.014
1746650348539698803,-0.019
1746650348547386830,-0.012
1746650348555074857,0.0
1746650348562762884,-0.002
1746650348570450911,-0.002
1746650348578138938,0.009000000000000001
1746650348585826965,0.019
1746650348593514992,0.029
1746650348601203019,0.036000000000000004
1746650348608891046,0.034
1746650348616579073,0.046
1746650348624267100,0.069
1746650348631955127,0.073
1746650348639643154,0.078
1746650348647331181,0.101
1746650348655019208,0.113
1746650348662707235,0.115
1746650348670395262,0.115
1746650348678083289,0.12
1746650348685771316,0.125
1746650348693459343,0.11800000000000001
1746650348701147370,0.098
1746650348708835397,0.081
1746650348716523424,0.059000000000000004
1746650348724211451,0.029
1746650348731899478,-0.004
1746650348739587505,-0.036000000000000004
1746650348747275532,-0.069
1746650348754963559,-0.091
1746650348762651586,-0.096
1746650348770339613,-0.093
1746650348778027640,-0.093
1746650348785715667,-0.091
1746650348793403694,-0.091
1746650348801091721,-0.083
1746650348808779748,-0.073
1746650348816467775,-0.069
1746650348824155802,-0.066
1746650348831843829,-0.066
1746650348839531856,-0.066
1746650348847219883,-0.07100000000000001
1746650348854907910,-0.073
1746650348862595937,-0.073
1746650348870283964,-0.069
1746650348877971991,-0.069
1746650348885660018,-0.07100000000000001
1746650348893348045,-0.069
1746650348901036072,-0.066
1746650348908724099,-0.069
1746650348916412126,-0.076
1746650348924100153,-0.081
1746650348931788180,-0.073
1746650348939476207,-0.069
1746650348947164234,-0.07100000000000001
1746650348954852261,-0.07100000000000001
1746650348962540288,-0.069
1746650348970228315,-0.069
1746650348977916342,-0.066
1746650348985604369,-0.069
1746650348993292396,-0.07100000000000001
1746650349000980423,-0.073
1746650349008668450,-0.073
1746650349016356526,-0.064
1746650349024044832,-0.046
1746650349031733138,-0.039
1746650349039421444,-0.041
1746650349047109750,-0.027
1746650349054798056,-0.017
1746650349062486362,-0.036000000000000004
1746650349070174668,-0.061
1746650349077862974,-0.066
1746650349085551280,-0.064
1746650349093239586,-0.064
1746650349100927892,-0.064
1746650349108616198,-0.054
1746650349116304504,-0.044
1746650349123992810,-0.064
1746650349131681116,-0.106
1746650349139369422,-0.002
1746650349147057728,0.40900000000000003
1746650349154746034,0.791
1746650349162434340,0.581
1746650349170122646,-0.081
1746650349177810952,-0.424
1746650349185499258,-0.28300000000000003
1746650349193187564,-0.177
1746650349200875870,-0.182
1746650349208564176,-0.101
1746650349216252482,-0.046
1746650349223940788,-0.069
1746650349231629094,-0.061
1746650349239317400,-0.036000000000000004
1746650349247005706,-0.032
1746650349254694012,-0.027
1746650349262382318,-0.024
1746650349270070624,-0.022
1746650349277758930,-0.014
1746650349285447236,-0.007
1746650349293135542,0.0
1746650349300823848,0.002
1746650349308512154,0.007
1746650349316200460,0.014
1746650349323888766,0.022
1746650349331577072,0.022
1746650349339265378,0.024
1746650349346953684,0.044
1746650349354641990,0.059000000000000004
1746650349362330296,0.059000000000000004
1746650349370018602,0.073
1746650349377706908,0.091
1746650349385395214,0.098
1746650349393083520,0.101
1746650349400771826,0.098
1746650349408460132,0.10300000000000001
1746650349416148438,0.113
1746650349423836744,0.108
1746650349431525050,0.08600000000000001
1746650349439213356,0.061
1746650349446901662,0.027
1746650349454589968,-0.012
1746650349462278274,-0.046
1746650349469966580,-0.073
1746650349477654886,-0.093
1746650349485343192,-0.10300000000000001
1746650349493031498,-0.106
1746650349500719804,-0.108
1746650349508408110,-0.11
1746650349516096416,-0.10300000000000001
1746650349523784722,-0.096
1746650349531473028,-0.098
1746650349539161334,-0.093
1746650349546849640,-0.083
1746650349554537946,-0.088
1746650349562226252,-0.091
1746650349569914558,-0.088
1746650349577602890,-0.08600000000000001,80,747
1746650349585291266,-0.088
1746650349592979642,-0.083
1746650349600668018,-0.076
1746650349608356394,-0.078
1746650349616044770,-0.091
1746650349623733146,-0.093
1746650349631421522,-0.08600000000000001
1746650349639109898,-0.083
1746650349646798274,-0.081
1746650349654486650,-0.076
1746650349662175026,-0.073
1746650349669863402,-0.076
1746650349677551778,-0.076
1746650349685240154,-0.073
1746650349692928530,-0.073
1746650349700616906,-0.081
1746650349708305282,-0.083
1746650349715993658,-0.078
1746650349723682034,-0.07100000000000001
1746650349731370410,-0.064
1746650349739058786,-0.051000000000000004
1746650349746747162,-0.036000000000000004
1746650349754435538,-0.034
1746650349762123914,-0.029
1746650349769812290,-0.024
1746650349777500666,-0.044
1746650349785189042,-0.059000000000000004
1746650349792877418,-0.049
1746650349800565794,-0.051000000000000004
1746650349808254170,-0.056
1746650349815942546,-0.039
1746650349823630922,-0.036000000000000004
1746650349831319298,-0.059000000000000004
1746650349839007674,-0.088
1746650349846696050,-0.091
1746650349854384426,0.106
1746650349862072802,0.562
1746650349869761178,0.811
1746650349877449554,0.41600000000000004
1746650349885137930,-0.202
1746650349892826306,-0.364
1746650349900514682,-0.197
1746650349908203058,-0.155
1746650349915891434,-0.14300000000000002
1746650349923579810,-0.046
1746650349931268186,-0.022
1746650349938956562,-0.044
1746650349946644938,-0.022
1746650349954333314,0.007
1746650349962021690,0.002
1746650349969710066,-0.004
1746650349977398442,0.004
1746650349985086818,0.019
1746650349992775194,0.029
1746650350000463570,0.032
1746650350008151946,0.034
1746650350015840322,0.046
1746650350023528698,0.054
1746650350031217074,0.054
1746650350038905450,0.064
1746650350046593826,0.073
1746650350054282202,0.078
1746650350061970578,0.098
1746650350069658954,0.11800000000000001
1746650350077347330,0.128
1746650350085035706,0.14300000000000002
1746650350092724082,0.15
1746650350100412458,0.15
1746650350108100834,0.16
1746650350115789210,0.162
1746650350123477586,0.16
1746650350131165962,0.162
1746650350138854341,0.16
1746650350146542856,0.14
1746650350154231371,0.11800000000000001
1746650350161919886,0.08600000000000001
1746650350169608401,0.041
1746650350177296916,0.012
1746650350184985431,-0.004
1746650350192673946,-0.029
1746650350200362461,-0.039
1746650350208050976,-0.034
1746650350215739491,-0.039
1746650350223428006,-0.039
1746650350231116521,-0.027
1746650350238805036,-0.022
1746650350246493551,-0.019
1746650350254182066,-0.017
1746650350261870581,-0.017
1746650350269559096,-0.024
1746650350277247611,-0.017
1746650350284936126,-0.009000000000000001
1746650350292624641,-0.014
1746650350300313156,-0.022
1746650350308001671,-0.017
1746650350315690186,-0.012
1746650350323378701,-0.012
1746650350331067216,-0.007
1746650350338755731,-0.002
1746650350346444246,-0.007
1746650350354132761,-0.009000000000000001
1746650350361821276,-0.007
1746650350369509791,-0.004
1746650350377198306,-0.007
1746650350384886821,-0.004
1746650350392575336,-0.004
1746650350400263851,-0.004
1746650350407952366,-0.002
1746650350415640881,-0.002
1746650350423329396,0.002
1746650350431017911,0.0
1746650350438706426,-0.007
1746650350446394941,-0.004
1746650350454083456,0.002
1746650350461771971,0.012
1746650350469460486,0.024
1746650350477149001,0.027
1746650350484837516,0.032
1746650350492526031,0.041
1746650350500214546,0.036000000000000004
1746650350507903061,0.022
1746650350515591576,0.019
1746650350523280091,0.019
1746650350530968606,0.014
1746650350538657121,0.014
1746650350546345636,0.014
1746650350554034151,0.007
1746650350561722666,0.0
1746650350569411181,-0.024
1746650350577099696,-0.007
1746650350584788211,0.253
1746650350592476726,0.712
1746650350600165241,0.801
1746650350607853756,0.263
1746650350615542271,-0.268
1746650350623230786,-0.281
1746650350630919301,-0.128
1746650350638607816,-0.128
1746650350646296331,-0.088
1746650350653984846,0.007
1746650350661673361,0.014
1746650350669361876,-0.007
1746650350677050391,0.012
1746650350684738906,0.029
1746650350692427421,0.024
1746650350700115966,0.027,80,758
1746650350707804133,0.039,,729
1746650350715492300,0.039
1746650350723180467,0.039
1746650350730868634,0.054
1746650350738556801,0.066
1746650350746244968,0.066
1746650350753933135,0.061
1746650350761621302,0.064
1746650350769309469,0.069
1746650350776997636,0.07100000000000001
1746650350784685803,0.083
1746650350792373970,0.10300000000000001
1746650350800062137,0.113
1746650350807750304,0.11800000000000001
1746650350815438471,0.128
1746650350823126638,0.138
1746650350830814805,0.14300000000000002
1746650350838502972,0.14300000000000002
1746650350846191139,0.14
1746650350853879306,0.133
1746650350861567473,0.138
1746650350869255640,0.14300000000000002
1746650350876943807,0.123
1746650350884631974,0.083
1746650350892320141,0.041
1746650350900008308,0.007
1746650350907696475,-0.022
1746650350915384642,-0.046
1746650350923072809,-0.059000000000000004
1746650350930760976,-0.064
1746650350938449143,-0.073
1746650350946137310,-0.073
1746650350953825477,-0.059000000000000004
1746650350961513644,-0.059000000000000004
1746650350969201811,-0.064
1746650350976889978,-0.056
1746650350984578145,-0.059000000000000004
1746650350992266312,-0.066
1746650350999954479,-0.066
1746650351007642646,-0.056
1746650351015330813,-0.056
1746650351023018980,-0.064
1746650351030707147,-0.066
1746650351038395314,-0.064
1746650351046083481,-0.059000000000000004
1746650351053771648,-0.066
1746650351061459815,-0.076
1746650351069147982,-0.073
1746650351076836149,-0.069
1746650351084524316,-0.066
1746650351092212483,-0.069
1746650351099900650,-0.069
1746650351107588817,-0.07100000000000001
1746650351115276984,-0.066
1746650351122965151,-0.059000000000000004
1746650351130653318,-0.061
1746650351138341485,-0.066
1746650351146029652,-0.059000000000000004
1746650351153717819,-0.059000000000000004
1746650351161405986,-0.059000000000000004
1746650351169094153,-0.056
1746650351176782320,-0.069
1746650351184470487,-0.078
1746650351192158654,-0.069
1746650351199846821,-0.061
1746650351207534988,-0.059000000000000004
1746650351215223155,-0.051000000000000004
1746650351222911322,-0.039
1746650351230599489,-0.029
1746650351238287656,-0.024
1746650351245975823,-0.027
1746650351253663990,-0.034
1746650351261352160,-0.046
1746650351269040605,-0.051000000000000004
1746650351276729050,-0.051000000000000004
1746650351284417495,-0.049
1746650351292105940,-0.051000000000000004
1746650351299794385,-0.059000000000000004
1746650351307482830,-0.054
1746650351315171275,-0.066
1746650351322859720,-0.093
1746650351330548165,-0.032
1746650351338236610,0.298
1746650351345925055,0.707
1746650351353613500,0.594
1746650351361301945,-0.044
1746650351368990390,-0.441
1746650351376678835,-0.327
1746650351384367280,-0.197
1746650351392055725,-0.20400000000000001
1746650351399744170,-0.13
1746650351407432615,-0.044
1746650351415121060,-0.044
1746650351422809505,-0.049
1746650351430497950,-0.032
1746650351438186395,-0.022
1746650351445874840,-0.019
1746650351453563285,-0.019
1746650351461251730,-0.014
1746650351468940175,-0.004
1746650351476628620,0.002
1746650351484317065,0.009000000000000001
1746650351492005510,0.012
1746650351499693955,0.007
1746650351507382400,0.014
1746650351515070845,0.032
1746650351522759290,0.032
1746650351530447735,0.034
1746650351538136180,0.049
1746650351545824625,0.066
1746650351553513070,0.078
1746650351561201515,0.091
1746650351568889960,0.10300000000000001
1746650351576578405,0.11
1746650351584266850,0.108
1746650351591955295,0.101
1746650351599643740,0.10300000000000001
1746650351607332185,0.101
1746650351615020630,0.091
1746650351622709075,0.076
1746650351630397520,0.054
1746650351638085965,0.022
1746650351645774410,-0.004
1746650351653462855,-0.036000000000000004
1746650351661151300,-0.078
1746650351668839745,-0.101
1746650351676528190,-0.106
1746650351684216635,-0.113
1746650351691905080,-0.115
1746650351699593525,-0.11
1746650351707281970,-0.115
1746650351714970415,-0.11
1746650351722658860,-0.098
1746650351730347305,-0.098
1746650351738035750,-0.101
1746650351745724195,-0.098
1746650351753412640,-0.093
1746650351761101085,-0.091
1746650351768789530,-0.088
1746650351776477975,-0.08600000000000001
1746650351784166420,-0.093
1746650351791854865,-0.106
1746650351799543310,-0.106
1746650351807231755,-0.101
1746650351814920200,-0.101
1746650351822608698,-0.093,80,713
1746650351830296725,-0.093
1746650351837984752,-0.098
1746650351845672779,-0.098
1746650351853360806,-0.098
1746650351861048833,-0.098
1746650351868736860,-0.096
1746650351876424887,-0.106
1746650351884112914,-0.11
1746650351891800941,-0.101
1746650351899488968,-0.096
1746650351907176995,-0.106
1746650351914865022,-0.108
1746650351922553049,-0.106
1746650351930241076,-0.098
1746650351937929103,-0.078
1746650351945617130,-0.066
1746650351953305157,-0.069
1746650351960993184,-0.059000000000000004
1746650351968681211,-0.046
1746650351976369238,-0.059000000000000004
1746650351984057265,-0.081
1746650351991745292,-0.083
1746650351999433319,-0.078
1746650352007121346,-0.083
1746650352014809373,-0.083
1746650352022497400,-0.078
1746650352030185427,-0.081
1746650352037873454,-0.096
1746650352045561481,-0.11
1746650352053249508,-0.036000000000000004
1746650352060937535,0.29
1746650352068625562,0.68
1746650352076313589,0.527
1746650352084001616,-0.155
1746650352091689643,-0.532
1746650352099377670,-0.372
1746650352107065697,-0.249
1746650352114753724,-0.263
1746650352122441751,-0.16
1746650352130129778,-0.059000000000000004
1746650352137817805,-0.07100000000000001
1746650352145505832,-0.069
1746650352153193859,-0.036000000000000004
1746650352160881886,-0.034
1746650352168569913,-0.039
1746650352176257940,-0.022
1746650352183945967,-0.012
1746650352191633994,-0.014
1746650352199322021,-0.012
1746650352207010048,-0.009000000000000001
1746650352214698075,0.002
1746650352222386102,0.019
1746650352230074129,0.022
1746650352237762156,0.019
1746650352245450183,0.034
1746650352253138210,0.046
1746650352260826237,0.046
1746650352268514264,0.061
1746650352276202291,0.081
1746650352283890318,0.088
1746650352291578345,0.098
1746650352299266372,0.11
1746650352306954399,0.113
1746650352314642426,0.108
1746650352322330453,0.11
1746650352330018480,0.115
1746650352337706507,0.11
1746650352345394534,0.091
1746650352353082561,0.061
1746650352360770588,0.029
1746650352368458615,-0.004
1746650352376146642,-0.046
1746650352383834718,-0.088,80,729
1746650352391523024,-0.115
1746650352399211330,-0.123
1746650352406899636,-0.123
1746650352414587942,-0.123
1746650352422276248,-0.123
1746650352429964554,-0.12
1746650352437652860,-0.115
1746650352445341166,-0.106
1746650352453029472,-0.091
1746650352460717778,-0.083
1746650352468406084,-0.083
1746650352476094390,-0.088
1746650352483782696,-0.088
1746650352491471002,-0.081
1746650352499159308,-0.083
1746650352506847614,-0.093
1746650352514535920,-0.093
1746650352522224226,-0.081
1746650352529912532,-0.078
1746650352537600838,-0.093
1746650352545289144,-0.101
1746650352552977450,-0.088
1746650352560665756,-0.088
1746650352568354062,-0.091
1746650352576042368,-0.091
1746650352583730674,-0.08600000000000001
1746650352591418980,-0.076
1746650352599107286,-0.066
1746650352606795592,-0.07100000000000001
1746650352614483898,-0.088
1746650352622172204,-0.08600000000000001
1746650352629860510,-0.073
1746650352637548816,-0.069
1746650352645237122,-0.07100000000000001
1746650352652925428,-0.07100000000000001
1746650352660613734,-0.069
1746650352668302040,-0.073
1746650352675990346,-0.078
1746650352683678652,-0.076
1746650352691366958,-0.069
1746650352699055264,-0.049
1746650352706743570,-0.034
1746650352714431876,-0.027
1746650352722120182,-0.022
1746650352729808488,-0.027
1746650352737496794,-0.046
1746650352745185100,-0.056
1746650352752873406,-0.051000000000000004
1746650352760561712,-0.051000000000000004
1746650352768250018,-0.059000000000000004
1746650352775938324,-0.056
1746650352783626630,-0.049
1746650352791314936,-0.059000000000000004
1746650352799003242,-0.08600000000000001
1746650352806691548,-0.101
1746650352814379854,0.069
1746650352822068160,0.522
1746650352829756466,0.8210000000000001
1746650352837444772,0.468
1746650352845133078,-0.182
1746650352852821384,-0.389
1746650352860509690,-0.224
1746650352868197996,-0.182
1746650352875886302,-0.184
1746650352883574608,-0.091
1746650352891262914,-0.056
1746650352898951220,-0.08600000000000001
1746650352906639526,-0.066
1746650352914327832,-0.046
1746650352922016138,-0.054
1746650352929704444,-0.044
1746650352937392750,-0.027
1746650352945081082,-0.024
1746650352952769249,-0.024
1746650352960457416,-0.024
1746650352968145583,-0.024
1746650352975833750,-0.022
1746650352983521917,-0.009000000000000001
1746650352991210084,0.007
1746650352998898251,0.012
1746650353006586418,0.014
1746650353014274585,0.027
1746650353021962752,0.032
1746650353029650919,0.036000000000000004
1746650353037339086,0.054
1746650353045027253,0.07100000000000001
1746650353052715420,0.076
1746650353060403587,0.08600000000000001
1746650353068091754,0.096
1746650353075779921,0.098
1746650353083468088,0.10300000000000001
1746650353091156255,0.10300000000000001
1746650353098844422,0.096
1746650353106532589,0.083
1746650353114220756,0.059000000000000004
1746650353121908923,0.022
1746650353129597090,-0.012
1746650353137285257,-0.044
1746650353144973424,-0.076
1746650353152661591,-0.093
1746650353160349758,-0.098
1746650353168037925,-0.10300000000000001
1746650353175726092,-0.106
1746650353183414259,-0.106
1746650353191102426,-0.10300000000000001
1746650353198790593,-0.098
1746650353206478760,-0.093
1746650353214166927,-0.091
1746650353221855094,-0.08600000000000001
1746650353229543261,-0.081
1746650353237231428,-0.091
1746650353244919595,-0.096
1746650353252607762,-0.081
1746650353260295929,-0.069
1746650353267984096,-0.076
1746650353275672263,-0.083
1746650353283360430,-0.08600000000000001
1746650353291048597,-0.088
1746650353298736764,-0.091
1746650353306424931,-0.091
1746650353314113098,-0.083
1746650353321801265,-0.078
1746650353329489432,-0.088
1746650353337177599,-0.088
1746650353344865766,-0.078
1746650353352553933,-0.083
1746650353360242100,-0.093
1746650353367930267,-0.088
1746650353375618434,-0.078
1746650353383306601,-0.073
1746650353390994768,-0.078
1746650353398682935,-0.081
1746650353406371102,-0.076
1746650353414059269,-0.073
1746650353421747436,-0.073
1746650353429435603,-0.076
1746650353437123770,-0.083
1746650353444811937,-0.088
1746650353452500104,-0.076
1746650353460188271,-0.064
1746650353467876438,-0.056
1746650353475564605,-0.046
1746650353483252772,-0.032
1746650353490940939,-0.019
1746650353498629106,-0.034
1746650353506317276,-0.056,80,751
1746650353514005721,-0.059000000000000004,,723
1746650353521694166,-0.054
1746650353529382611,-0.061
1746650353537071056,-0.061
1746650353544759501,-0.054
1746650353552447946,-0.056
1746650353560136391,-0.069
1746650353567824836,-0.093
1746650353575513281,-0.098
1746650353583201726,0.12
1746650353590890171,0.589
1746650353598578616,0.803
1746650353606267061,0.367
1746650353613955506,-0.246
1746650353621643951,-0.379
1746650353629332396,-0.212
1746650353637020841,-0.187
1746650353644709286,-0.187
1746650353652397731,-0.088
1746650353660086176,-0.054
1746650353667774621,-0.07100000000000001
1746650353675463066,-0.051000000000000004
1746650353683151511,-0.046
1746650353690839956,-0.059000000000000004
1746650353698528401,-0.046
1746650353706216846,-0.034
1746650353713905291,-0.034
1746650353721593736,-0.027
1746650353729282181,-0.012
1746650353736970626,-0.009000000000000001
1746650353744659071,-0.009000000000000001
1746650353752347516,0.0
1746650353760035961,0.009000000000000001
1746650353767724406,0.014
1746650353775412851,0.019
1746650353783101296,0.027
1746650353790789741,0.039
1746650353798478186,0.054
1746650353806166631,0.07100000000000001
1746650353813855076,0.078
1746650353821543521,0.081
1746650353829231966,0.088
1746650353836920411,0.101
1746650353844608856,0.11800000000000001
1746650353852297301,0.125
1746650353859985746,0.115
1746650353867674191,0.098
1746650353875362636,0.081
1746650353883051081,0.054
1746650353890739526,0.024
1746650353898427971,-0.007
1746650353906116416,-0.044
1746650353913804861,-0.07100000000000001
1746650353921493306,-0.08600000000000001
1746650353929181751,-0.091
1746650353936870196,-0.093
1746650353944558641,-0.093
1746650353952247086,-0.091
1746650353959935531,-0.08600000000000001
1746650353967623976,-0.08600000000000001
1746650353975312421,-0.083
1746650353983000866,-0.078
1746650353990689311,-0.069
1746650353998377756,-0.064
1746650354006066201,-0.059000000000000004
1746650354013754646,-0.056
1746650354021443091,-0.059000000000000004
1746650354029131536,-0.061
1746650354036819981,-0.054
1746650354044508426,-0.056
1746650354052196871,-0.066
1746650354059885316,-0.064
1746650354067573814,-0.056
1746650354075261911,-0.059000000000000004
1746650354082950008,-0.051000000000000004
1746650354090638105,-0.041
1746650354098326202,-0.049
1746650354106014299,-0.059000000000000004
1746650354113702396,-0.051000000000000004
1746650354121390493,-0.041
1746650354129078590,-0.049
1746650354136766687,-0.059000000000000004
1746650354144454784,-0.044
1746650354152142881,-0.029
1746650354159830978,-0.034
1746650354167519075,-0.039
1746650354175207172,-0.034
1746650354182895269,-0.034
1746650354190583366,-0.024
1746650354198271463,-0.012
1746650354205959560,-0.012
1746650354213647657,-0.014
1746650354221335754,-0.014
1746650354229023851,-0.014
1746650354236711948,-0.014
1746650354244400045,-0.014
1746650354252088142,-0.009000000000000001
1746650354259776239,-0.017
1746650354267464336,-0.027
1746650354275152433,-0.022
1746650354282840530,-0.002
1746650354290528627,0.017
1746650354298216724,0.027
1746650354305904821,0.032
1746650354313592918,0.036000000000000004
1746650354321281015,0.027
1746650354328969112,0.009000000000000001
1746650354336657209,0.009000000000000001
1746650354344345306,0.007
1746650354352033403,-0.002
1746650354359721500,0.0
1746650354367409597,0.012
1746650354375097694,0.012
1746650354382785791,-0.002
1746650354390473888,-0.029
1746650354398161985,-0.032
1746650354405850082,0.17
1746650354413538179,0.626
1746650354421226276,0.86
1746650354428914373,0.448
1746650354436602470,-0.17200000000000001
1746650354444290567,-0.315
1746650354451978664,-0.14300000000000002
1746650354459666761,-0.11
1746650354467354858,-0.11800000000000001
1746650354475042955,-0.034
1746650354482731052,0.002
1746650354490419149,-0.012
1746650354498107246,-0.002
1746650354505795343,0.014
1746650354513483440,0.022
1746650354521171537,0.024
1746650354528859634,0.034
1746650354536547731,0.044
1746650354544235828,0.039
1746650354551923925,0.029
1746650354559612022,0.039
1746650354567300119,0.051000000000000004
1746650354574988216,0.056
1746650354582676313,0.061
1746650354590364410,0.066
1746650354598052507,0.076
1746650354605740604,0.08600000000000001
1746650354613428701,0.093
1746650354621116798,0.10300000000000001
1746650354628804917,0.113,81,759
1746650354636493293,0.125
1746650354644181669,0.133
1746650354651870045,0.135
1746650354659558421,0.138
1746650354667246797,0.145
1746650354674935173,0.15
1746650354682623549,0.15
1746650354690311925,0.14300000000000002
1746650354698000301,0.133
1746650354705688677,0.11
1746650354713377053,0.076
1746650354721065429,0.041
1746650354728753805,0.009000000000000001
1746650354736442181,-0.022
1746650354744130557,-0.044
1746650354751818933,-0.054
1746650354759507309,-0.059000000000000004
1746650354767195685,-0.059000000000000004
1746650354774884061,-0.061
1746650354782572437,-0.066
1746650354790260813,-0.056
1746650354797949189,-0.046
1746650354805637565,-0.049
1746650354813325941,-0.054
1746650354821014317,-0.056
1746650354828702693,-0.054
1746650354836391069,-0.046
1746650354844079445,-0.041
1746650354851767821,-0.044
1746650354859456197,-0.046
1746650354867144573,-0.041
1746650354874832949,-0.049
1746650354882521325,-0.061
1746650354890209701,-0.056
1746650354897898077,-0.056
1746650354905586453,-0.064
1746650354913274829,-0.064
1746650354920963205,-0.054
1746650354928651581,-0.049
1746650354936339957,-0.054
1746650354944028333,-0.064
1746650354951716709,-0.064
1746650354959405085,-0.061
1746650354967093461,-0.056
1746650354974781837,-0.059000000000000004
1746650354982470213,-0.064
1746650354990158589,-0.056
1746650354997846965,-0.036000000000000004
1746650355005535341,-0.039
1746650355013223717,-0.061
1746650355020912093,-0.066
1746650355028600469,-0.051000000000000004
1746650355036288845,-0.044
1746650355043977221,-0.044
1746650355051665597,-0.044
1746650355059353973,-0.054
1746650355067042349,-0.056
1746650355074730725,-0.049
1746650355082419101,-0.054
1746650355090107477,-0.066
1746650355097795853,-0.069
1746650355105484229,-0.061
1746650355113172605,-0.041
1746650355120860981,-0.027
1746650355128549357,-0.024
1746650355136237733,-0.012
1746650355143926109,-0.012
1746650355151614485,-0.039
1746650355159302861,-0.051000000000000004
1746650355166991237,-0.051000000000000004
1746650355174679613,-0.054
1746650355182367989,-0.046
1746650355190056368,-0.039
1746650355197744744,-0.046
1746650355205433120,-0.051000000000000004
1746650355213121496,-0.069
1746650355220809872,-0.091
1746650355228498248,0.061
1746650355236186624,0.49
1746650355243875000,0.781
1746650355251563376,0.466
1746650355259251752,-0.157
1746650355266940128,-0.394
1746650355274628504,-0.246
1746650355282316880,-0.177
1746650355290005256,-0.182
1746650355297693632,-0.101
1746650355305382008,-0.059000000000000004
1746650355313070384,-0.073
1746650355320758760,-0.051000000000000004
1746650355328447136,-0.027
1746650355336135512,-0.041
1746650355343823888,-0.051000000000000004
1746650355351512264,-0.034
1746650355359200640,-0.027
1746650355366889016,-0.027
1746650355374577392,-0.022
1746650355382265768,-0.017
1746650355389954144,-0.014
1746650355397642520,-0.004
1746650355405330896,0.002
1746650355413019272,0.002
1746650355420707648,0.017
1746650355428396024,0.029
1746650355436084400,0.036000000000000004
1746650355443772776,0.049
1746650355451461152,0.056
1746650355459149528,0.056
1746650355466837904,0.066
1746650355474526280,0.08600000000000001
1746650355482214656,0.091
1746650355489903032,0.091
1746650355497591408,0.091
1746650355505279784,0.088
1746650355512968160,0.083
1746650355520656536,0.066
1746650355528344912,0.051000000000000004
1746650355536033288,0.027
1746650355543721664,-0.014
1746650355551410040,-0.056
1746650355559098416,-0.088
1746650355566786792,-0.11
1746650355574475168,-0.12
1746650355582163544,-0.128
1746650355589851920,-0.135
1746650355597540296,-0.13
1746650355605228672,-0.123
1746650355612917048,-0.11800000000000001
1746650355620605424,-0.106
1746650355628293800,-0.098
1746650355635982176,-0.106
1746650355643670552,-0.108
1746650355651358928,-0.101
1746650355659047304,-0.098
1746650355666735680,-0.101
1746650355674424056,-0.101
1746650355682112432,-0.098
1746650355689800808,-0.093
1746650355697489184,-0.093
1746650355705177560,-0.101
1746650355712865936,-0.101
1746650355720554312,-0.096
1746650355728242688,-0.101
1746650355735931064,-0.108
1746650355743619440,-0.108
1746650355751307823,-0.10300000000000001,81,768
1746650355758995920,-0.093
1746650355766684017,-0.091
1746650355774372114,-0.10300000000000001
1746650355782060211,-0.101
1746650355789748308,-0.088
1746650355797436405,-0.091
1746650355805124502,-0.093
1746650355812812599,-0.093
1746650355820500696,-0.096
1746650355828188793,-0.091
1746650355835876890,-0.081
1746650355843564987,-0.076
1746650355851253084,-0.083
1746650355858941181,-0.083
1746650355866629278,-0.076
1746650355874317375,-0.078
1746650355882005472,-0.083
1746650355889693569,-0.083
1746650355897381666,-0.083
1746650355905069763,-0.083
1746650355912757860,-0.076
1746650355920445957,-0.07100000000000001
1746650355928134054,-0.064
1746650355935822151,-0.051000000000000004
1746650355943510248,-0.041
1746650355951198345,-0.039
1746650355958886442,-0.044
1746650355966574539,-0.061
1746650355974262636,-0.073
1746650355981950733,-0.07100000000000001
1746650355989638830,-0.07100000000000001
1746650355997326927,-0.069
1746650356005015024,-0.064
1746650356012703121,-0.061
1746650356020391218,-0.069
1746650356028079315,-0.081
1746650356035767412,-0.076
1746650356043455509,0.10300000000000001
1746650356051143606,0.53
1746650356058831703,0.732
1746650356066519800,0.273
1746650356074207897,-0.34700000000000003
1746650356081895994,-0.446
1746650356089584091,-0.258
1746650356097272188,-0.229
1746650356104960285,-0.216
1746650356112648382,-0.096
1746650356120336479,-0.046
1746650356128024576,-0.07100000000000001
1746650356135712673,-0.056
1746650356143400770,-0.032
1746650356151088867,-0.032
1746650356158776964,-0.036000000000000004
1746650356166465061,-0.032
1746650356174153158,-0.024
1746650356181841255,-0.022
1746650356189529352,-0.012
1746650356197217449,0.0
1746650356204905546,0.002
1746650356212593643,0.002
1746650356220281740,0.004
1746650356227969837,0.012
1746650356235657934,0.032
1746650356243346031,0.046
1746650356251034128,0.041
1746650356258722225,0.046
1746650356266410322,0.07100000000000001
1746650356274098419,0.088
1746650356281786516,0.091
1746650356289474613,0.101
1746650356297162710,0.115
1746650356304850807,0.113
1746650356312538930,0.101
1746650356320226957,0.101
1746650356327914984,0.106
1746650356335603011,0.088
1746650356343291038,0.054
1746650356350979065,0.024
1746650356358667092,-0.012
1746650356366355119,-0.059000000000000004
1746650356374043146,-0.091
1746650356381731173,-0.106
1746650356389419200,-0.125
1746650356397107227,-0.14
1746650356404795254,-0.133
1746650356412483281,-0.123
1746650356420171308,-0.12
1746650356427859335,-0.115
1746650356435547362,-0.108
1746650356443235389,-0.10300000000000001
1746650356450923416,-0.101
1746650356458611443,-0.091
1746650356466299470,-0.083
1746650356473987497,-0.088
1746650356481675524,-0.08600000000000001
1746650356489363551,-0.078
1746650356497051578,-0.078
1746650356504739605,-0.083
1746650356512427632,-0.08600000000000001
1746650356520115659,-0.091
1746650356527803686,-0.093
1746650356535491713,-0.091
1746650356543179740,-0.101
1746650356550867767,-0.10300000000000001
1746650356558555794,-0.093
1746650356566243821,-0.088
1746650356573931848,-0.088
1746650356581619875,-0.088
1746650356589307902,-0.091
1746650356596995929,-0.088
1746650356604683956,-0.083
1746650356612371983,-0.08600000000000001
1746650356620060010,-0.088
1746650356627748037,-0.081
1746650356635436064,-0.076
1746650356643124091,-0.083
1746650356650812118,-0.08600000000000001
1746650356658500145,-0.076
1746650356666188172,-0.07100000000000001
1746650356673876199,-0.066
1746650356681564226,-0.064
1746650356689252253,-0.061
1746650356696940280,-0.061
1746650356704628307,-0.066
1746650356712316334,-0.073
1746650356720004361,-0.073
1746650356727692388,-0.076
1746650356735380415,-0.078
1746650356743068442,-0.073
1746650356750756469,-0.064
1746650356758444496,-0.049
1746650356766132523,-0.036000000000000004
1746650356773820550,-0.034
1746650356781508577,-0.032
1746650356789196604,-0.032
1746650356796884631,-0.046
1746650356804572658,-0.056
1746650356812260685,-0.051000000000000004
1746650356819948712,-0.046
1746650356827636739,-0.051000000000000004
1746650356835324766,-0.051000000000000004
1746650356843012793,-0.054
1746650356850700820,-0.056
1746650356858388847,-0.073
1746650356866076874,-0.106
1746650356873764950,0.002,80,823
1746650356881453395,0.401
1746650356889141840,0.796
1746650356896830285,0.633
1746650356904518730,-0.002
1746650356912207175,-0.382
1746650356919895620,-0.276
1746650356927584065,-0.167
1746650356935272510,-0.187
1746650356942960955,-0.123
1746650356950649400,-0.049
1746650356958337845,-0.064
1746650356966026290,-0.073
1746650356973714735,-0.049
1746650356981403180,-0.041
1746650356989091625,-0.046
1746650356996780070,-0.034
1746650357004468515,-0.027
1746650357012156960,-0.032
1746650357019845405,-0.027
1746650357027533850,-0.017
1746650357035222295,-0.014
1746650357042910740,-0.012
1746650357050599185,0.0
1746650357058287630,0.004
1746650357065976075,0.009000000000000001
1746650357073664520,0.022
1746650357081352965,0.034
1746650357089041410,0.044
1746650357096729855,0.051000000000000004
1746650357104418300,0.061
1746650357112106745,0.073
1746650357119795190,0.083
1746650357127483635,0.091
1746650357135172080,0.096
1746650357142860525,0.098
1746650357150548970,0.098
1746650357158237415,0.098
1746650357165925860,0.098
1746650357173614305,0.081
1746650357181302750,0.041
1746650357188991195,0.004
1746650357196679640,-0.027
1746650357204368085,-0.064
1746650357212056530,-0.093
1746650357219744975,-0.101
1746650357227433420,-0.10300000000000001
1746650357235121865,-0.108
1746650357242810310,-0.113
1746650357250498755,-0.11800000000000001
1746650357258187200,-0.113
1746650357265875645,-0.10300000000000001
1746650357273564090,-0.101
1746650357281252535,-0.096
1746650357288940980,-0.088
1746650357296629425,-0.088
1746650357304317870,-0.083
1746650357312006315,-0.076
1746650357319694760,-0.073
1746650357327383205,-0.073
1746650357335071650,-0.076
1746650357342760095,-0.08600000000000001
1746650357350448540,-0.08600000000000001
1746650357358136985,-0.07100000000000001
1746650357365825430,-0.076
1746650357373513875,-0.091
1746650357381202320,-0.08600000000000001
1746650357388890765,-0.073
1746650357396579210,-0.076
1746650357404267655,-0.08600000000000001
1746650357411956100,-0.081
1746650357419644545,-0.07100000000000001
1746650357427332990,-0.073
1746650357435021488,-0.076,80,824
1746650357442709585,-0.076
1746650357450397682,-0.076
1746650357458085779,-0.073
1746650357465773876,-0.061
1746650357473461973,-0.061
1746650357481150070,-0.069
1746650357488838167,-0.07100000000000001
1746650357496526264,-0.064
1746650357504214361,-0.064
1746650357511902458,-0.064
1746650357519590555,-0.059000000000000004
1746650357527278652,-0.054
1746650357534966749,-0.054
1746650357542654846,-0.061
1746650357550342943,-0.064
1746650357558031040,-0.059000000000000004
1746650357565719137,-0.056
1746650357573407234,-0.056
1746650357581095331,-0.061
1746650357588783428,-0.064
1746650357596471525,-0.059000000000000004
1746650357604159622,-0.041
1746650357611847719,-0.029
1746650357619535816,-0.029
1746650357627223913,-0.024
1746650357634912010,-0.017
1746650357642600107,-0.036000000000000004
1746650357650288204,-0.054
1746650357657976301,-0.049
1746650357665664398,-0.039
1746650357673352495,-0.044
1746650357681040592,-0.051000000000000004
1746650357688728689,-0.046
1746650357696416786,-0.046
1746650357704104883,-0.073
1746650357711792980,-0.10300000000000001
1746650357719481077,0.039
1746650357727169174,0.47000000000000003
1746650357734857271,0.8210000000000001
1746650357742545368,0.5670000000000001
1746650357750233465,-0.078
1746650357757921562,-0.379
1746650357765609659,-0.244
1746650357773297756,-0.17200000000000001
1746650357780985853,-0.194
1746650357788673950,-0.106
1746650357796362047,-0.044
1746650357804050144,-0.076
1746650357811738241,-0.073
1746650357819426338,-0.036000000000000004
1746650357827114435,-0.034
1746650357834802532,-0.046
1746650357842490629,-0.039
1746650357850178726,-0.022
1746650357857866823,-0.017
1746650357865554920,-0.022
1746650357873243017,-0.019
1746650357880931114,-0.007
1746650357888619211,0.0
1746650357896307308,0.002
1746650357903995405,0.004
1746650357911683502,0.014
1746650357919371599,0.027
1746650357927059696,0.041
1746650357934747793,0.054
1746650357942435890,0.066
1746650357950123987,0.078
1746650357957812084,0.083
1746650357965500181,0.091
1746650357973188278,0.106
1746650357980876375,0.11
1746650357988564472,0.11
1746650357996252591,0.11800000000000001
1746650358003940967,0.12
1746650358011629343,0.106
1746650358019317719,0.081
1746650358027006095,0.051000000000000004
1746650358034694471,0.017
1746650358042382847,-0.017
1746650358050071223,-0.054
1746650358057759599,-0.083
1746650358065447975,-0.10300000000000001
1746650358073136351,-0.11
1746650358080824727,-0.106
1746650358088513103,-0.098
1746650358096201479,-0.098
1746650358103889855,-0.096
1746650358111578231,-0.091
1746650358119266607,-0.08600000000000001
1746650358126954983,-0.083
1746650358134643359,-0.081
1746650358142331735,-0.076
1746650358150020111,-0.07100000000000001
1746650358157708487,-0.066
1746650358165396863,-0.059000000000000004
1746650358173085239,-0.061
1746650358180773615,-0.059000000000000004
1746650358188461991,-0.051000000000000004
1746650358196150367,-0.049
1746650358203838743,-0.056
1746650358211527119,-0.059000000000000004
1746650358219215495,-0.054
1746650358226903871,-0.051000000000000004
1746650358234592247,-0.056
1746650358242280623,-0.054
1746650358249968999,-0.051000000000000004
1746650358257657375,-0.051000000000000004
1746650358265345751,-0.049
1746650358273034127,-0.046
1746650358280722503,-0.046
1746650358288410879,-0.044
1746650358296099255,-0.036000000000000004
1746650358303787631,-0.034
1746650358311476007,-0.032
1746650358319164383,-0.032
1746650358326852759,-0.032
1746650358334541135,-0.032
1746650358342229511,-0.024
1746650358349917887,-0.017
1746650358357606263,-0.019
1746650358365294639,-0.017
1746650358372983015,-0.014
1746650358380671391,-0.019
1746650358388359767,-0.019
1746650358396048143,-0.009000000000000001
1746650358403736519,-0.007
1746650358411424895,-0.009000000000000001
1746650358419113271,-0.014
1746650358426801647,-0.014
1746650358434490023,-0.014
1746650358442178399,-0.014
1746650358449866775,-0.007
1746650358457555151,0.004
1746650358465243527,0.014
1746650358472931903,0.024
1746650358480620279,0.036000000000000004
1746650358488308655,0.034
1746650358495997031,0.017
1746650358503685407,0.012
1746650358511373783,0.014
1746650358519062159,0.004
1746650358526750535,0.002
1746650358534438911,0.012
1746650358542127287,0.007
1746650358549815663,-0.004
1746650358557504046,-0.027,79,813
1746650358565192073,-0.036000000000000004,,834
1746650358572880100,0.133
1746650358580568127,0.5690000000000001
1746650358588256154,0.863
1746650358595944181,0.542
1746650358603632208,-0.093
1746650358611320235,-0.332
1746650358619008262,-0.177
1746650358626696289,-0.115
1746650358634384316,-0.128
1746650358642072343,-0.041
1746650358649760370,0.002
1746650358657448397,-0.019
1746650358665136424,-0.014
1746650358672824451,0.009000000000000001
1746650358680512478,0.017
1746650358688200505,0.019
1746650358695888532,0.024
1746650358703576559,0.032
1746650358711264586,0.032
1746650358718952613,0.029
1746650358726640640,0.036000000000000004
1746650358734328667,0.041
1746650358742016694,0.044
1746650358749704721,0.061
1746650358757392748,0.073
1746650358765080775,0.069
1746650358772768802,0.078
1746650358780456829,0.098
1746650358788144856,0.108
1746650358795832883,0.11800000000000001
1746650358803520910,0.128
1746650358811208937,0.14
1746650358818896964,0.157
1746650358826584991,0.167
1746650358834273018,0.167
1746650358841961045,0.167
1746650358849649072,0.167
1746650358857337099,0.157
1746650358865025126,0.14300000000000002
1746650358872713153,0.125
1746650358880401180,0.098
1746650358888089207,0.061
1746650358895777234,0.014
1746650358903465261,-0.027
1746650358911153288,-0.049
1746650358918841315,-0.061
1746650358926529342,-0.066
1746650358934217369,-0.064
1746650358941905396,-0.066
1746650358949593423,-0.073
1746650358957281450,-0.069
1746650358964969477,-0.064
1746650358972657504,-0.064
1746650358980345531,-0.059000000000000004
1746650358988033558,-0.041
1746650358995721585,-0.041
1746650359003409612,-0.051000000000000004
1746650359011097639,-0.051000000000000004
1746650359018785666,-0.054
1746650359026473693,-0.059000000000000004
1746650359034161720,-0.051000000000000004
1746650359041849747,-0.044
1746650359049537774,-0.044
1746650359057225801,-0.046
1746650359064913828,-0.061
1746650359072601855,-0.07100000000000001
1746650359080289882,-0.061
1746650359087977909,-0.051000000000000004
1746650359095665936,-0.059000000000000004
1746650359103353963,-0.059000000000000004
1746650359111041990,-0.049
1746650359118730066,-0.051000000000000004
1746650359126418372,-0.059000000000000004
1746650359134106678,-0.056
1746650359141794984,-0.056
1746650359149483290,-0.064
1746650359157171596,-0.056
1746650359164859902,-0.049
1746650359172548208,-0.054
1746650359180236514,-0.051000000000000004
1746650359187924820,-0.049
1746650359195613126,-0.056
1746650359203301432,-0.056
1746650359210989738,-0.046
1746650359218678044,-0.051000000000000004
1746650359226366350,-0.056
1746650359234054656,-0.054
1746650359241742962,-0.046
1746650359249431268,-0.049
1746650359257119574,-0.054
1746650359264807880,-0.049
1746650359272496186,-0.044
1746650359280184492,-0.046
1746650359287872798,-0.041
1746650359295561104,-0.027
1746650359303249410,-0.024
1746650359310937716,-0.019
1746650359318626022,-0.009000000000000001
1746650359326314328,-0.022
1746650359334002634,-0.036000000000000004
1746650359341690940,-0.034
1746650359349379246,-0.036000000000000004
1746650359357067552,-0.046
1746650359364755858,-0.049
1746650359372444164,-0.046
1746650359380132470,-0.036000000000000004
1746650359387820776,-0.039
1746650359395509082,-0.076
1746650359403197388,-0.032
1746650359410885694,0.278
1746650359418574000,0.71
1746650359426262306,0.683
1746650359433950612,0.061
1746650359441638918,-0.433
1746650359449327224,-0.384
1746650359457015530,-0.216
1746650359464703836,-0.20700000000000002
1746650359472392142,-0.155
1746650359480080448,-0.051000000000000004
1746650359487768754,-0.039
1746650359495457060,-0.054
1746650359503145366,-0.032
1746650359510833672,-0.024
1746650359518521978,-0.027
1746650359526210284,-0.012
1746650359533898590,0.0
1746650359541586896,0.0
1746650359549275202,0.004
1746650359556963508,0.012
1746650359564651814,0.007
1746650359572340120,0.004
1746650359580028426,0.014
1746650359587716732,0.029
1746650359595405038,0.041
1746650359603093344,0.054
1746650359610781650,0.064
1746650359618469956,0.069
1746650359626158262,0.083
1746650359633846568,0.106
1746650359641534874,0.12
1746650359649223180,0.133
1746650359656911486,0.145
1746650359664599792,0.15
1746650359672288098,0.147
1746650359679976430,0.145,78,845
1746650359687664597,0.138
1746650359695352764,0.12
1746650359703040931,0.098
1746650359710729098,0.073
1746650359718417265,0.032
1746650359726105432,-0.019
1746650359733793599,-0.064
1746650359741481766,-0.093
1746650359749169933,-0.115
1746650359756858100,-0.133
1746650359764546267,-0.145
1746650359772234434,-0.14300000000000002
1746650359779922601,-0.138
1746650359787610768,-0.13
1746650359795298935,-0.11800000000000001
1746650359802987102,-0.11
1746650359810675269,-0.11
1746650359818363436,-0.106
1746650359826051603,-0.098
1746650359833739770,-0.093
1746650359841427937,-0.08600000000000001
1746650359849116104,-0.081
1746650359856804271,-0.081
1746650359864492438,-0.083
1746650359872180605,-0.083
1746650359879868772,-0.081
1746650359887556939,-0.081
1746650359895245106,-0.091
1746650359902933273,-0.096
1746650359910621440,-0.088
1746650359918309607,-0.088
1746650359925997774,-0.088
1746650359933685941,-0.08600000000000001
1746650359941374108,-0.098
1746650359949062275,-0.101
1746650359956750442,-0.088
1746650359964438609,-0.088
1746650359972126776,-0.096
1746650359979814943,-0.091
1746650359987503110,-0.083
1746650359995191277,-0.078
1746650360002879444,-0.078
1746650360010567611,-0.083
1746650360018255778,-0.088
1746650360025943945,-0.088
1746650360033632112,-0.093
1746650360041320279,-0.098
1746650360049008446,-0.091
1746650360056696613,-0.08600000000000001
1746650360064384780,-0.083
1746650360072072947,-0.073
1746650360079761114,-0.066
1746650360087449281,-0.054
1746650360095137448,-0.036000000000000004
1746650360102825615,-0.039
1746650360110513782,-0.064
1746650360118201949,-0.073
1746650360125890116,-0.069
1746650360133578283,-0.076
1746650360141266450,-0.078
1746650360148954617,-0.066
1746650360156642784,-0.066
1746650360164330951,-0.078
1746650360172019118,-0.10300000000000001
1746650360179707285,-0.12
1746650360187395452,0.019
1746650360195083619,0.441
1746650360202771786,0.798
1746650360210459953,0.552
1746650360218148120,-0.115
1746650360225836287,-0.436
1746650360233524454,-0.28300000000000003
1746650360241212624,-0.192
1746650360248900651,-0.221
1746650360256588678,-0.14300000000000002
1746650360264276705,-0.066
1746650360271964732,-0.083
1746650360279652759,-0.088
1746650360287340786,-0.061
1746650360295028813,-0.054
1746650360302716840,-0.064
1746650360310404867,-0.056
1746650360318092894,-0.046
1746650360325780921,-0.049
1746650360333468948,-0.046
1746650360341156975,-0.036000000000000004
1746650360348845002,-0.029
1746650360356533029,-0.019
1746650360364221056,-0.014
1746650360371909083,-0.014
1746650360379597110,-0.004
1746650360387285137,0.007
1746650360394973164,0.019
1746650360402661191,0.029
1746650360410349218,0.044
1746650360418037245,0.059000000000000004
1746650360425725272,0.076
1746650360433413299,0.096
1746650360441101326,0.108
1746650360448789353,0.11
1746650360456477380,0.11
1746650360464165407,0.113
1746650360471853434,0.106
1746650360479541461,0.091
1746650360487229488,0.069
1746650360494917515,0.029
1746650360502605542,-0.012
1746650360510293569,-0.049
1746650360517981596,-0.08600000000000001
1746650360525669623,-0.113
1746650360533357650,-0.133
1746650360541045677,-0.147
1746650360548733704,-0.152
1746650360556421731,-0.147
1746650360564109758,-0.14
1746650360571797785,-0.13
1746650360579485812,-0.12
1746650360587173839,-0.123
1746650360594861866,-0.123
1746650360602549893,-0.113
1746650360610237920,-0.106
1746650360617925947,-0.108
1746650360625613974,-0.108
1746650360633302001,-0.106
1746650360640990028,-0.098
1746650360648678055,-0.093
1746650360656366082,-0.098
1746650360664054109,-0.101
1746650360671742136,-0.10300000000000001
1746650360679430163,-0.108
1746650360687118190,-0.106
1746650360694806217,-0.098
1746650360702494244,-0.106
1746650360710182271,-0.115
1746650360717870298,-0.106
1746650360725558325,-0.098
1746650360733246352,-0.106
1746650360740934379,-0.106
1746650360748622406,-0.098
1746650360756310433,-0.091
1746650360763998460,-0.091
1746650360771686487,-0.088
1746650360779374514,-0.08600000000000001
1746650360787062541,-0.088
1746650360794750568,-0.091
1746650360802438644,-0.088,77,853
1746650360810126741,-0.08600000000000001
1746650360817814838,-0.088
1746650360825502935,-0.083
1746650360833191032,-0.078
1746650360840879129,-0.088
1746650360848567226,-0.093
1746650360856255323,-0.088
1746650360863943420,-0.073
1746650360871631517,-0.056
1746650360879319614,-0.046
1746650360887007711,-0.036000000000000004
1746650360894695808,-0.036000000000000004
1746650360902383905,-0.051000000000000004
1746650360910072002,-0.069
1746650360917760099,-0.07100000000000001
1746650360925448196,-0.069
1746650360933136293,-0.073
1746650360940824390,-0.066
1746650360948512487,-0.059000000000000004
1746650360956200584,-0.069
1746650360963888681,-0.088
1746650360971576778,-0.113
1746650360979264875,-0.022
1746650360986952972,0.352
1746650360994641069,0.766
1746650361002329166,0.658
1746650361010017263,0.034
1746650361017705360,-0.387
1746650361025393457,-0.31
1746650361033081554,-0.189
1746650361040769651,-0.20400000000000001
1746650361048457748,-0.15
1746650361056145845,-0.07100000000000001
1746650361063833942,-0.078
1746650361071522039,-0.088
1746650361079210136,-0.066
1746650361086898233,-0.056
1746650361094586330,-0.054
1746650361102274427,-0.044
1746650361109962524,-0.044
1746650361117650621,-0.039
1746650361125338718,-0.029
1746650361133026815,-0.027
1746650361140714912,-0.024
1746650361148403009,-0.019
1746650361156091106,-0.017
1746650361163779203,-0.007
1746650361171467300,0.009000000000000001
1746650361179155397,0.019
1746650361186843494,0.022
1746650361194531591,0.032
1746650361202219688,0.046
1746650361209907785,0.059000000000000004
1746650361217595882,0.078
1746650361225283979,0.098
1746650361232972076,0.11
1746650361240660173,0.11800000000000001
1746650361248348270,0.12
1746650361256036367,0.125
1746650361263724464,0.125
1746650361271412561,0.108
1746650361279100658,0.078
1746650361286788755,0.051000000000000004
1746650361294476852,0.009000000000000001
1746650361302164949,-0.039
1746650361309853046,-0.073
1746650361317541143,-0.096
1746650361325229240,-0.11800000000000001
1746650361332917337,-0.138
1746650361340605434,-0.138
1746650361348293531,-0.128
1746650361355981628,-0.128
1746650361363669747,-0.135
1746650361371358123,-0.13
1746650361379046499,-0.113
1746650361386734875,-0.108
1746650361394423251,-0.113
1746650361402111627,-0.11
1746650361409800003,-0.098
1746650361417488379,-0.098
1746650361425176755,-0.101
1746650361432865131,-0.093
1746650361440553507,-0.091
1746650361448241883,-0.096
1746650361455930259,-0.098
1746650361463618635,-0.093
1746650361471307011,-0.081
1746650361478995387,-0.088
1746650361486683763,-0.11
1746650361494372139,-0.106
1746650361502060515,-0.088
1746650361509748891,-0.088
1746650361517437267,-0.096
1746650361525125643,-0.093
1746650361532814019,-0.093
1746650361540502395,-0.093
1746650361548190771,-0.08600000000000001
1746650361555879147,-0.083
1746650361563567523,-0.088
1746650361571255899,-0.083
1746650361578944275,-0.076
1746650361586632651,-0.078
1746650361594321027,-0.083
1746650361602009403,-0.083
1746650361609697779,-0.073
1746650361617386155,-0.066
1746650361625074531,-0.07100000000000001
1746650361632762907,-0.076
1746650361640451283,-0.073
1746650361648139659,-0.07100000000000001
1746650361655828035,-0.076
1746650361663516411,-0.083
1746650361671204787,-0.078
1746650361678893163,-0.073
1746650361686581539,-0.07100000000000001
1746650361694269915,-0.059000000000000004
1746650361701958291,-0.046
1746650361709646667,-0.036000000000000004
1746650361717335043,-0.024
1746650361725023419,-0.036000000000000004
1746650361732711795,-0.061
1746650361740400171,-0.061
1746650361748088547,-0.049
1746650361755776923,-0.061
1746650361763465299,-0.07100000000000001
1746650361771153675,-0.059000000000000004
1746650361778842051,-0.054
1746650361786530427,-0.064
1746650361794218803,-0.096
1746650361801907179,-0.091
1746650361809595555,0.138
1746650361817283931,0.601
1746650361824972307,0.808
1746650361832660683,0.372
1746650361840349059,-0.244
1746650361848037435,-0.382
1746650361855725811,-0.216
1746650361863414187,-0.184
1746650361871102563,-0.18
1746650361878790939,-0.091
1746650361886479315,-0.07100000000000001
1746650361894167691,-0.088
1746650361901856067,-0.061
1746650361909544443,-0.049
1746650361917232819,-0.054
1746650361924921202,-0.046,77,834
1746650361932609229,-0.039
1746650361940297256,-0.039
1746650361947985283,-0.029
1746650361955673310,-0.024
1746650361963361337,-0.027
1746650361971049364,-0.017
1746650361978737391,-0.007
1746650361986425418,-0.009000000000000001
1746650361994113445,-0.002
1746650362001801472,0.009000000000000001
1746650362009489499,0.017
1746650362017177526,0.029
1746650362024865553,0.044
1746650362032553580,0.061
1746650362040241607,0.07100000000000001
1746650362047929634,0.078
1746650362055617661,0.093
1746650362063305688,0.108
1746650362070993715,0.115
1746650362078681742,0.115
1746650362086369769,0.115
1746650362094057796,0.115
1746650362101745823,0.101
1746650362109433850,0.076
1746650362117121877,0.039
1746650362124809904,-0.007
1746650362132497931,-0.044
1746650362140185958,-0.076
1746650362147873985,-0.10300000000000001
1746650362155562012,-0.11800000000000001
1746650362163250039,-0.12
1746650362170938066,-0.12
1746650362178626093,-0.123
1746650362186314120,-0.125
1746650362194002147,-0.12
1746650362201690174,-0.108
1746650362209378201,-0.106
1746650362217066228,-0.10300000000000001
1746650362224754255,-0.096
1746650362232442282,-0.093
1746650362240130309,-0.091
1746650362247818336,-0.08600000000000001
1746650362255506363,-0.08600000000000001
1746650362263194390,-0.088
1746650362270882417,-0.083
1746650362278570444,-0.081
1746650362286258471,-0.091
1746650362293946498,-0.093
1746650362301634525,-0.088
1746650362309322552,-0.08600000000000001
1746650362317010579,-0.088
1746650362324698606,-0.088
1746650362332386633,-0.088
1746650362340074660,-0.081
1746650362347762687,-0.081
1746650362355450714,-0.08600000000000001
1746650362363138741,-0.083
1746650362370826768,-0.078
1746650362378514795,-0.078
1746650362386202822,-0.081
1746650362393890849,-0.083
1746650362401578876,-0.078
1746650362409266903,-0.069
1746650362416954930,-0.061
1746650362424642957,-0.061
1746650362432330984,-0.069
1746650362440019011,-0.066
1746650362447707038,-0.059000000000000004
1746650362455395065,-0.064
1746650362463083092,-0.069
1746650362470771119,-0.054
1746650362478459146,-0.056
1746650362486147222,-0.07100000000000001,76,782
1746650362493835528,-0.069
1746650362501523834,-0.059000000000000004
1746650362509212140,-0.061
1746650362516900446,-0.064
1746650362524588752,-0.061
1746650362532277058,-0.056
1746650362539965364,-0.046
1746650362547653670,-0.034
1746650362555341976,-0.032
1746650362563030282,-0.029
1746650362570718588,-0.027
1746650362578406894,-0.039
1746650362586095200,-0.054
1746650362593783506,-0.054
1746650362601471812,-0.046
1746650362609160118,-0.049
1746650362616848424,-0.054
1746650362624536730,-0.056
1746650362632225036,-0.054
1746650362639913342,-0.073
1746650362647601648,-0.101
1746650362655289954,0.041
1746650362662978260,0.47800000000000004
1746650362670666566,0.8130000000000001
1746650362678354872,0.537
1746650362686043178,-0.11
1746650362693731484,-0.396
1746650362701419790,-0.253
1746650362709108096,-0.17500000000000002
1746650362716796402,-0.192
1746650362724484708,-0.115
1746650362732173014,-0.056
1746650362739861320,-0.073
1746650362747549626,-0.07100000000000001
1746650362755237932,-0.044
1746650362762926238,-0.039
1746650362770614544,-0.039
1746650362778302850,-0.036000000000000004
1746650362785991156,-0.032
1746650362793679462,-0.027
1746650362801367768,-0.024
1746650362809056074,-0.019
1746650362816744380,-0.012
1746650362824432686,-0.004
1746650362832120992,0.002
1746650362839809298,0.009000000000000001
1746650362847497604,0.007
1746650362855185910,0.022
1746650362862874216,0.039
1746650362870562522,0.044
1746650362878250828,0.054
1746650362885939134,0.078
1746650362893627440,0.088
1746650362901315746,0.088
1746650362909004052,0.106
1746650362916692358,0.11800000000000001
1746650362924380664,0.113
1746650362932068970,0.11800000000000001
1746650362939757276,0.125
1746650362947445582,0.108
1746650362955133888,0.083
1746650362962822194,0.064
1746650362970510500,0.024
1746650362978198806,-0.027
1746650362985887112,-0.061
1746650362993575418,-0.083
1746650363001263724,-0.10300000000000001
1746650363008952030,-0.113
1746650363016640336,-0.115
1746650363024328642,-0.113
1746650363032016948,-0.11
1746650363039705254,-0.11
1746650363047393586,-0.11
1746650363055081753,-0.108
1746650363062769920,-0.093
1746650363070458087,-0.08600000000000001
1746650363078146254,-0.08600000000000001
1746650363085834421,-0.081
1746650363093522588,-0.076
1746650363101210755,-0.081
1746650363108898922,-0.093
1746650363116587089,-0.091
1746650363124275256,-0.081
1746650363131963423,-0.078
1746650363139651590,-0.081
1746650363147339757,-0.08600000000000001
1746650363155027924,-0.088
1746650363162716091,-0.08600000000000001
1746650363170404258,-0.08600000000000001
1746650363178092425,-0.091
1746650363185780592,-0.091
1746650363193468759,-0.083
1746650363201156926,-0.078
1746650363208845093,-0.081
1746650363216533260,-0.083
1746650363224221427,-0.078
1746650363231909594,-0.073
1746650363239597761,-0.073
1746650363247285928,-0.073
1746650363254974095,-0.07100000000000001
1746650363262662262,-0.07100000000000001
1746650363270350429,-0.069
1746650363278038596,-0.069
1746650363285726763,-0.069
1746650363293414930,-0.07100000000000001
1746650363301103097,-0.073
1746650363308791264,-0.069
1746650363316479431,-0.051000000000000004
1746650363324167598,-0.049
1746650363331855765,-0.066
1746650363339543932,-0.07100000000000001
1746650363347232099,-0.061
1746650363354920266,-0.061
1746650363362608433,-0.061
1746650363370296600,-0.049
1746650363377984767,-0.036000000000000004
1746650363385672934,-0.034
1746650363393361101,-0.027
1746650363401049268,-0.019
1746650363408737435,-0.036000000000000004
1746650363416425602,-0.049
1746650363424113769,-0.044
1746650363431801936,-0.049
1746650363439490103,-0.059000000000000004
1746650363447178270,-0.054
1746650363454866437,-0.039
1746650363462554604,-0.039
1746650363470242771,-0.066
1746650363477930938,-0.10300000000000001
1746650363485619105,-0.024
1746650363493307272,0.342
1746650363500995439,0.764
1746650363508683606,0.665
1746650363516371773,0.039
1746650363524059940,-0.387
1746650363531748107,-0.303
1746650363539436274,-0.17
1746650363547124441,-0.189
1746650363554812608,-0.135
1746650363562500775,-0.054
1746650363570188942,-0.061
1746650363577877109,-0.064
1746650363585565276,-0.041
1746650363593253443,-0.044
1746650363600941610,-0.046
1746650363608629780,-0.032,76,793
1746650363616317946,-0.024,,826
1746650363624006112,-0.017
1746650363631694278,-0.014
1746650363639382444,-0.012
1746650363647070610,-0.009000000000000001
1746650363654758776,-0.004
1746650363662446942,0.0
1746650363670135108,0.009000000000000001
1746650363677823274,0.022
1746650363685511440,0.032
1746650363693199606,0.049
1746650363700887772,0.059000000000000004
1746650363708575938,0.054
1746650363716264104,0.064
1746650363723952270,0.093
1746650363731640436,0.10300000000000001
1746650363739328602,0.10300000000000001
1746650363747016768,0.12
1746650363754704934,0.135
1746650363762393100,0.13
1746650363770081266,0.12
1746650363777769432,0.115
1746650363785457598,0.098
1746650363793145764,0.066
1746650363800833930,0.027
1746650363808522096,-0.012
1746650363816210262,-0.049
1746650363823898428,-0.073
1746650363831586594,-0.096
1746650363839274760,-0.11
1746650363846962926,-0.12
1746650363854651092,-0.123
1746650363862339258,-0.113
1746650363870027424,-0.108
1746650363877715590,-0.106
1746650363885403756,-0.098
1746650363893091922,-0.091
1746650363900780088,-0.088
1746650363908468254,-0.088
1746650363916156420,-0.083
1746650363923844586,-0.076
1746650363931532752,-0.081
1746650363939220918,-0.08600000000000001
1746650363946909084,-0.076
1746650363954597250,-0.07100000000000001
1746650363962285416,-0.078
1746650363969973582,-0.083
1746650363977661748,-0.078
1746650363985349914,-0.078
1746650363993038080,-0.081
1746650364000726246,-0.083
1746650364008414412,-0.08600000000000001
1746650364016102578,-0.08600000000000001
1746650364023790744,-0.078
1746650364031478910,-0.073
1746650364039167076,-0.076
1746650364046855242,-0.076
1746650364054543408,-0.07100000000000001
1746650364062231574,-0.073
1746650364069919740,-0.073
1746650364077607906,-0.069
1746650364085296072,-0.069
1746650364092984238,-0.066
1746650364100672404,-0.059000000000000004
1746650364108360570,-0.059000000000000004
1746650364116048736,-0.056
1746650364123736902,-0.051000000000000004
1746650364131425068,-0.059000000000000004
1746650364139113234,-0.061
1746650364146801400,-0.059000000000000004
1746650364154489566,-0.056
1746650364162177732,-0.059000000000000004
1746650364169865970,-0.061
1746650364177554276,-0.059000000000000004
1746650364185242582,-0.056
1746650364192930888,-0.059000000000000004
1746650364200619194,-0.056
1746650364208307500,-0.039
1746650364215995806,-0.027
1746650364223684112,-0.032
1746650364231372418,-0.024
1746650364239060724,-0.019
1746650364246749030,-0.036000000000000004
1746650364254437336,-0.046
1746650364262125642,-0.041
1746650364269813948,-0.044
1746650364277502254,-0.049
1746650364285190560,-0.046
1746650364292878866,-0.044
1746650364300567172,-0.044
1746650364308255478,-0.056
1746650364315943784,-0.08600000000000001
1746650364323632090,-0.007
1746650364331320396,0.352
1746650364339008702,0.764
1746650364346697008,0.658
1746650364354385314,0.039
1746650364362073620,-0.369
1746650364369761926,-0.28600000000000003
1746650364377450232,-0.17200000000000001
1746650364385138538,-0.187
1746650364392826844,-0.12
1746650364400515150,-0.046
1746650364408203456,-0.064
1746650364415891762,-0.07100000000000001
1746650364423580068,-0.039
1746650364431268374,-0.027
1746650364438956680,-0.027
1746650364446644986,-0.017
1746650364454333292,-0.012
1746650364462021598,-0.019
1746650364469709904,-0.022
1746650364477398210,-0.014
1746650364485086516,0.0
1746650364492774822,0.004
1746650364500463128,0.004
1746650364508151434,0.012
1746650364515839740,0.024
1746650364523528046,0.036000000000000004
1746650364531216352,0.044
1746650364538904658,0.051000000000000004
1746650364546592964,0.059000000000000004
1746650364554281270,0.069
1746650364561969576,0.091
1746650364569657882,0.108
1746650364577346188,0.11800000000000001
1746650364585034494,0.13
1746650364592722800,0.13
1746650364600411106,0.125
1746650364608099412,0.128
1746650364615787718,0.123
1746650364623476024,0.096
1746650364631164330,0.066
1746650364638852636,0.039
1746650364646540942,0.0
1746650364654229248,-0.036000000000000004
1746650364661917554,-0.061
1746650364669605860,-0.08600000000000001
1746650364677294166,-0.101
1746650364684982472,-0.101
1746650364692670778,-0.106
1746650364700359084,-0.11
1746650364708047390,-0.098
1746650364715735696,-0.088
1746650364723424002,-0.091
1746650364731112338,-0.08600000000000001,76,848
1746650364738800365,-0.078
1746650364746488392,-0.078
1746650364754176419,-0.076
1746650364761864446,-0.066
1746650364769552473,-0.064
1746650364777240500,-0.069
1746650364784928527,-0.066
1746650364792616554,-0.059000000000000004
1746650364800304581,-0.064
1746650364807992608,-0.07100000000000001
1746650364815680635,-0.076
1746650364823368662,-0.076
1746650364831056689,-0.07100000000000001
1746650364838744716,-0.073
1746650364846432743,-0.073
1746650364854120770,-0.064
1746650364861808797,-0.059000000000000004
1746650364869496824,-0.061
1746650364877184851,-0.059000000000000004
1746650364884872878,-0.059000000000000004
1746650364892560905,-0.066
1746650364900248932,-0.064
1746650364907936959,-0.056
1746650364915624986,-0.059000000000000004
1746650364923313013,-0.056
1746650364931001040,-0.049
1746650364938689067,-0.051000000000000004
1746650364946377094,-0.051000000000000004
1746650364954065121,-0.044
1746650364961753148,-0.044
1746650364969441175,-0.044
1746650364977129202,-0.046
1746650364984817229,-0.054
1746650364992505256,-0.044
1746650365000193283,-0.027
1746650365007881310,-0.017
1746650365015569337,-0.009000000000000001
1746650365023257364,0.0
1746650365030945391,-0.007
1746650365038633418,-0.017
1746650365046321445,-0.017
1746650365054009472,-0.022
1746650365061697499,-0.032
1746650365069385526,-0.024
1746650365077073553,-0.009000000000000001
1746650365084761580,-0.017
1746650365092449607,-0.029
1746650365100137634,-0.044
1746650365107825661,-0.051000000000000004
1746650365115513688,0.088
1746650365123201715,0.493
1746650365130889742,0.801
1746650365138577769,0.515
1746650365146265796,-0.11800000000000001
1746650365153953823,-0.377
1746650365161641850,-0.221
1746650365169329877,-0.14300000000000002
1746650365177017904,-0.152
1746650365184705931,-0.073
1746650365192393958,-0.022
1746650365200081985,-0.034
1746650365207770012,-0.017
1746650365215458039,0.004
1746650365223146066,0.004
1746650365230834093,0.012
1746650365238522120,0.029
1746650365246210147,0.029
1746650365253898174,0.017
1746650365261586201,0.022
1746650365269274228,0.036000000000000004
1746650365276962255,0.044
1746650365284650282,0.054
1746650365292338354,0.066
1746650365300026381,0.073
1746650365307714408,0.083
1746650365315402435,0.088
1746650365323090462,0.096
1746650365330778489,0.12
1746650365338466516,0.145
1746650365346154543,0.157
1746650365353842570,0.165
1746650365361530597,0.182
1746650365369218624,0.197
1746650365376906651,0.199
1746650365384594678,0.197
1746650365392282705,0.199
1746650365399970732,0.192
1746650365407658759,0.167
1746650365415346786,0.135
1746650365423034813,0.101
1746650365430722840,0.066
1746650365438410867,0.019
1746650365446098894,-0.024
1746650365453786921,-0.061
1746650365461474948,-0.083
1746650365469162975,-0.083
1746650365476851002,-0.07100000000000001
1746650365484539029,-0.073
1746650365492227056,-0.088
1746650365499915083,-0.088
1746650365507603110,-0.066
1746650365515291137,-0.059000000000000004
1746650365522979164,-0.059000000000000004
1746650365530667191,-0.046
1746650365538355218,-0.034
1746650365546043245,-0.036000000000000004
1746650365553731272,-0.039
1746650365561419299,-0.029
1746650365569107326,-0.032
1746650365576795353,-0.039
1746650365584483380,-0.039
1746650365592171407,-0.044
1746650365599859434,-0.054
1746650365607547461,-0.051000000000000004
1746650365615235488,-0.032
1746650365622923515,-0.024
1746650365630611542,-0.036000000000000004
1746650365638299569,-0.044
1746650365645987596,-0.036000000000000004
1746650365653675623,-0.032
1746650365661363650,-0.036000000000000004
1746650365669051677,-0.034
1746650365676739704,-0.034
1746650365684427731,-0.041
1746650365692115758,-0.041
1746650365699803785,-0.032
1746650365707491812,-0.032
1746650365715179839,-0.029
1746650365722867866,-0.014
1746650365730555893,0.002
1746650365738243920,0.012
1746650365745931947,0.004
1746650365753619974,-0.009000000000000001
1746650365761308001,-0.012
1746650365768996028,-0.017
1746650365776684055,-0.024
1746650365784372082,-0.022
1746650365792060109,-0.012
1746650365799748136,-0.017
1746650365807436163,-0.024
1746650365815124190,-0.032
1746650365822812217,-0.044
1746650365830500244,0.046
1746650365838188271,0.406
1746650365845876298,0.791
1746650365853564378,0.577,75,832
1746650365861252823,-0.133
1746650365868941268,-0.47500000000000003
1746650365876629713,-0.298
1746650365884318158,-0.192
1746650365892006603,-0.216
1746650365899695048,-0.108
1746650365907383493,0.002
1746650365915071938,-0.004
1746650365922760383,-0.004
1746650365930448828,0.029
1746650365938137273,0.032
1746650365945825718,0.022
1746650365953514163,0.032
1746650365961202608,0.044
1746650365968891053,0.046
1746650365976579498,0.044
1746650365984267943,0.049
1746650365991956388,0.056
1746650365999644833,0.064
1746650366007333278,0.07100000000000001
1746650366015021723,0.08600000000000001
1746650366022710168,0.101
1746650366030398613,0.10300000000000001
1746650366038087058,0.098
1746650366045775503,0.113
1746650366053463948,0.14300000000000002
1746650366061152393,0.16
1746650366068840838,0.17
1746650366076529283,0.189
1746650366084217728,0.20700000000000002
1746650366091906173,0.20400000000000001
1746650366099594618,0.199
1746650366107283063,0.197
1746650366114971508,0.189
1746650366122659953,0.17200000000000001
1746650366130348398,0.14300000000000002
1746650366138036843,0.096
1746650366145725288,0.041
1746650366153413733,-0.004
1746650366161102178,-0.044
1746650366168790623,-0.069
1746650366176479068,-0.08600000000000001
1746650366184167513,-0.098
1746650366191855958,-0.108
1746650366199544403,-0.10300000000000001
1746650366207232848,-0.091
1746650366214921293,-0.093
1746650366222609738,-0.096
1746650366230298183,-0.08600000000000001
1746650366237986628,-0.073
1746650366245675073,-0.069
1746650366253363518,-0.064
1746650366261051963,-0.059000000000000004
1746650366268740408,-0.051000000000000004
1746650366276428853,-0.044
1746650366284117298,-0.051000000000000004
1746650366291805743,-0.061
1746650366299494188,-0.061
1746650366307182633,-0.059000000000000004
1746650366314871078,-0.061
1746650366322559523,-0.069
1746650366330247968,-0.069
1746650366337936413,-0.064
1746650366345624858,-0.064
1746650366353313303,-0.064
1746650366361001748,-0.064
1746650366368690193,-0.064
1746650366376378638,-0.061
1746650366384067083,-0.064
1746650366391755528,-0.066
1746650366399443973,-0.059000000000000004
1746650366407132418,-0.054
1746650366414820916,-0.061,75,838
1746650366422509152,-0.069,,790
1746650366430197388,-0.07100000000000001
1746650366437885624,-0.07100000000000001
1746650366445573860,-0.069
1746650366453262096,-0.059000000000000004
1746650366460950332,-0.041
1746650366468638568,-0.032
1746650366476326804,-0.027
1746650366484015040,-0.027
1746650366491703276,-0.024
1746650366499391512,-0.039
1746650366507079748,-0.051000000000000004
1746650366514767984,-0.046
1746650366522456220,-0.046
1746650366530144456,-0.054
1746650366537832692,-0.054
1746650366545520928,-0.051000000000000004
1746650366553209164,-0.059000000000000004
1746650366560897400,-0.083
1746650366568585636,-0.101
1746650366576273872,0.069
1746650366583962108,0.525
1746650366591650344,0.843
1746650366599338580,0.512
1746650366607026816,-0.145
1746650366614715052,-0.387
1746650366622403288,-0.234
1746650366630091524,-0.18
1746650366637779760,-0.189
1746650366645467996,-0.10300000000000001
1746650366653156232,-0.054
1746650366660844468,-0.083
1746650366668532704,-0.076
1746650366676220940,-0.046
1746650366683909176,-0.044
1746650366691597412,-0.046
1746650366699285648,-0.039
1746650366706973884,-0.034
1746650366714662120,-0.032
1746650366722350356,-0.027
1746650366730038592,-0.024
1746650366737726828,-0.019
1746650366745415064,-0.012
1746650366753103300,-0.007
1746650366760791536,-0.002
1746650366768479772,0.007
1746650366776168008,0.017
1746650366783856244,0.029
1746650366791544480,0.044
1746650366799232716,0.056
1746650366806920952,0.064
1746650366814609188,0.078
1746650366822297424,0.101
1746650366829985660,0.108
1746650366837673896,0.113
1746650366845362132,0.12
1746650366853050368,0.123
1746650366860738604,0.11800000000000001
1746650366868426840,0.101
1746650366876115076,0.069
1746650366883803312,0.032
1746650366891491548,-0.002
1746650366899179784,-0.041
1746650366906868020,-0.078
1746650366914556256,-0.101
1746650366922244492,-0.11800000000000001
1746650366929932728,-0.133
1746650366937620964,-0.133
1746650366945309200,-0.12
1746650366952997436,-0.125
1746650366960685672,-0.138
1746650366968373908,-0.123
1746650366976062193,-0.108
1746650366983750429,-0.12
1746650366991438665,-0.12
1746650366999126901,-0.106
1746650367006815137,-0.10300000000000001
1746650367014503373,-0.10300000000000001
1746650367022191609,-0.10300000000000001
1746650367029879845,-0.115
1746650367037568081,-0.11800000000000001
1746650367045256317,-0.108
1746650367052944553,-0.108
1746650367060632789,-0.12
1746650367068321025,-0.11800000000000001
1746650367076009261,-0.108
1746650367083697497,-0.11
1746650367091385733,-0.11
1746650367099073969,-0.10300000000000001
1746650367106762205,-0.106
1746650367114450441,-0.108
1746650367122138677,-0.106
1746650367129826913,-0.106
1746650367137515149,-0.108
1746650367145203385,-0.108
1746650367152891621,-0.11
1746650367160579857,-0.11
1746650367168268093,-0.106
1746650367175956329,-0.106
1746650367183644565,-0.096
1746650367191332801,-0.076
1746650367199021037,-0.069
1746650367206709273,-0.064
1746650367214397509,-0.064
1746650367222085745,-0.078
1746650367229773981,-0.088
1746650367237462217,-0.08600000000000001
1746650367245150453,-0.08600000000000001
1746650367252838689,-0.088
1746650367260526925,-0.08600000000000001
1746650367268215161,-0.083
1746650367275903397,-0.081
1746650367283591633,-0.096
1746650367291279869,-0.133
1746650367298968105,-0.088
1746650367306656341,0.241
1746650367314344577,0.71
1746650367322032813,0.717
1746650367329721049,0.11800000000000001
1746650367337409285,-0.389
1746650367345097521,-0.362
1746650367352785757,-0.20700000000000002
1746650367360473993,-0.209
1746650367368162229,-0.17
1746650367375850465,-0.08600000000000001
1746650367383538701,-0.091
1746650367391226937,-0.101
1746650367398915173,-0.07100000000000001
1746650367406603409,-0.061
1746650367414291645,-0.07100000000000001
1746650367421979881,-0.064
1746650367429668117,-0.049
1746650367437356353,-0.044
1746650367445044589,-0.041
1746650367452732825,-0.034
1746650367460421061,-0.024
1746650367468109297,-0.022
1746650367475797533,-0.024
1746650367483485769,-0.014
1746650367491174005,-0.002
1746650367498862241,0.007
1746650367506550477,0.019
1746650367514238713,0.032
1746650367521926949,0.046
1746650367529615185,0.064
1746650367537303474,0.078,75,716
1746650367544991501,0.093
1746650367552679528,0.11
1746650367560367555,0.11800000000000001
1746650367568055582,0.11800000000000001
1746650367575743609,0.123
1746650367583431636,0.125
1746650367591119663,0.113
1746650367598807690,0.08600000000000001
1746650367606495717,0.051000000000000004
1746650367614183744,0.002
1746650367621871771,-0.044
1746650367629559798,-0.069
1746650367637247825,-0.091
1746650367644935852,-0.11800000000000001
1746650367652623879,-0.133
1746650367660311906,-0.138
1746650367667999933,-0.135
1746650367675687960,-0.11800000000000001
1746650367683375987,-0.113
1746650367691064014,-0.12
1746650367698752041,-0.115
1746650367706440068,-0.106
1746650367714128095,-0.10300000000000001
1746650367721816122,-0.101
1746650367729504149,-0.093
1746650367737192176,-0.096
1746650367744880203,-0.093
1746650367752568230,-0.08600000000000001
1746650367760256257,-0.083
1746650367767944284,-0.081
1746650367775632311,-0.076
1746650367783320338,-0.078
1746650367791008365,-0.076
1746650367798696392,-0.078
1746650367806384419,-0.088
1746650367814072446,-0.088
1746650367821760473,-0.078
1746650367829448500,-0.073
1746650367837136527,-0.073
1746650367844824554,-0.07100000000000001
1746650367852512581,-0.07100000000000001
1746650367860200608,-0.061
1746650367867888635,-0.051000000000000004
1746650367875576662,-0.051000000000000004
1746650367883264689,-0.059000000000000004
1746650367890952716,-0.059000000000000004
1746650367898640743,-0.054
1746650367906328770,-0.049
1746650367914016797,-0.049
1746650367921704824,-0.056
1746650367929392851,-0.056
1746650367937080878,-0.056
1746650367944768905,-0.059000000000000004
1746650367952456932,-0.046
1746650367960144959,-0.024
1746650367967832986,-0.009000000000000001
1746650367975521013,-0.002
1746650367983209040,0.004
1746650367990897067,-0.004
1746650367998585094,-0.022
1746650368006273121,-0.027
1746650368013961148,-0.019
1746650368021649175,-0.027
1746650368029337202,-0.029
1746650368037025229,-0.012
1746650368044713256,-0.007
1746650368052401283,-0.024
1746650368060089310,-0.054
1746650368067777337,-0.059000000000000004
1746650368075465364,0.108
1746650368083153391,0.542
1746650368090841418,0.843
1746650368098529494,0.522
1746650368106217521,-0.113
1746650368113905548,-0.34700000000000003
1746650368121593575,-0.192
1746650368129281602,-0.13
1746650368136969629,-0.145
1746650368144657656,-0.064
1746650368152345683,-0.014
1746650368160033710,-0.032
1746650368167721737,-0.019
1746650368175409764,0.002
1746650368183097791,0.0
1746650368190785818,0.002
1746650368198473845,0.014
1746650368206161872,0.012
1746650368213849899,0.007
1746650368221537926,0.019
1746650368229225953,0.027
1746650368236913980,0.029
1746650368244602007,0.036000000000000004
1746650368252290034,0.044
1746650368259978061,0.051000000000000004
1746650368267666088,0.064
1746650368275354115,0.07100000000000001
1746650368283042142,0.078
1746650368290730169,0.091
1746650368298418196,0.108
1746650368306106223,0.12
1746650368313794250,0.13
1746650368321482277,0.14300000000000002
1746650368329170304,0.155
1746650368336858331,0.165
1746650368344546358,0.17
1746650368352234385,0.17
1746650368359922412,0.167
1746650368367610439,0.155
1746650368375298466,0.123
1746650368382986493,0.081
1746650368390674520,0.046
1746650368398362547,0.019
1746650368406050574,-0.019
1746650368413738601,-0.059000000000000004
1746650368421426628,-0.076
1746650368429114655,-0.076
1746650368436802682,-0.08600000000000001
1746650368444490709,-0.088
1746650368452178736,-0.078
1746650368459866763,-0.073
1746650368467554790,-0.069
1746650368475242817,-0.066
1746650368482930844,-0.066
1746650368490618871,-0.061
1746650368498306898,-0.061
1746650368505994925,-0.061
1746650368513682952,-0.049
1746650368521370979,-0.046
1746650368529059006,-0.054
1746650368536747033,-0.054
1746650368544435060,-0.049
1746650368552123087,-0.051000000000000004
1746650368559811114,-0.056
1746650368567499141,-0.061
1746650368575187168,-0.061
1746650368582875195,-0.056
1746650368590563222,-0.054
1746650368598251249,-0.054
1746650368605939276,-0.056
1746650368613627303,-0.056
1746650368621315330,-0.059000000000000004
1746650368629003357,-0.061
1746650368636691384,-0.056
1746650368644379411,-0.044
1746650368652067438,-0.046
1746650368659755510,-0.054,75,744
1746650368667443886,-0.054
1746650368675132262,-0.049
1746650368682820638,-0.049
1746650368690509014,-0.054
1746650368698197390,-0.056
1746650368705885766,-0.054
1746650368713574142,-0.051000000000000004
1746650368721262518,-0.044
1746650368728950894,-0.039
1746650368736639270,-0.046
1746650368744327646,-0.049
1746650368752016022,-0.049
1746650368759704398,-0.056
1746650368767392774,-0.056
1746650368775081150,-0.049
1746650368782769526,-0.049
1746650368790457902,-0.041
1746650368798146278,-0.022
1746650368805834654,-0.009000000000000001
1746650368813523030,-0.009000000000000001
1746650368821211406,-0.017
1746650368828899782,-0.032
1746650368836588158,-0.041
1746650368844276534,-0.046
1746650368851964910,-0.044
1746650368859653286,-0.039
1746650368867341662,-0.044
1746650368875030038,-0.051000000000000004
1746650368882718414,-0.049
1746650368890406790,-0.064
1746650368898095166,-0.081
1746650368905783542,0.069
1746650368913471918,0.495
1746650368921160294,0.801
1746650368928848670,0.512
1746650368936537046,-0.115
1746650368944225422,-0.379
1746650368951913798,-0.231
